6.080000000000000000e+02 2.382360750004988703e-02
6.133333099999999831e+02 4.855653364824461665e-02
6.186666900000000169e+02 5.015344179182121276e-02
6.240000000000000000e+02 3.862468335187062285e-02
6.293333099999999831e+02 2.664926785225428529e-02
6.346666900000000169e+02 2.308703027996086843e-02
6.400000000000000000e+02 2.364587596502141370e-02
6.453333099999999831e+02 2.022800891243646537e-02
6.506666900000000169e+02 1.344260355528191161e-02
6.560000000000000000e+02 5.109700972710519776e-03
6.613333099999999831e+02 1.046792428008145800e-03
6.666666900000000169e+02 5.608635478092496851e-03
6.720000000000000000e+02 1.502108711860877799e-02
6.773333099999999831e+02 2.011107620940114429e-02
6.826666900000000169e+02 2.047141106044115394e-02
6.880000000000000000e+02 1.795012054663768994e-02
6.933333099999999831e+02 1.280878766731876305e-02
6.986666900000000169e+02 1.055912457897009021e-02
7.040000000000000000e+02 1.646633387611993668e-02
7.093333099999999831e+02 2.659123950807387032e-02
7.146666900000000169e+02 3.930735672443277234e-02
7.200000000000000000e+02 4.853443239056107888e-02
7.253333099999999831e+02 5.359628090726771543e-02
7.306666900000000169e+02 6.497356889864941420e-02
7.360000000000000000e+02 9.298991353649961600e-02
7.413333099999999831e+02 1.349537567623373124e-01
7.466666900000000169e+02 1.740512359873458426e-01
7.520000000000000000e+02 1.849972869162825606e-01
7.573333099999999831e+02 1.635376686350421549e-01
7.626666900000000169e+02 1.238498557544667478e-01
7.680000000000000000e+02 8.798895153392577440e-02
7.733333099999999831e+02 7.122916186580387221e-02
7.786666900000000169e+02 7.129385638555837956e-02
7.840000000000000000e+02 7.548877809121197491e-02
7.893333099999999831e+02 7.963094357765927722e-02
7.946666900000000169e+02 8.379518377560207787e-02
8.000000000000000000e+02 9.327039745801718462e-02
8.053333099999999831e+02 1.145649161609362809e-01
8.106666900000000169e+02 1.462645766138721548e-01
8.160000000000000000e+02 1.777211188906778760e-01
8.213333099999999831e+02 1.964464498057267028e-01
8.266666900000000169e+02 1.995851617421583180e-01
8.320000000000000000e+02 1.912856609876683878e-01
8.373333099999999831e+02 1.866183761179263656e-01
8.426666900000000169e+02 1.968934106344742974e-01
8.480000000000000000e+02 2.178029475500922740e-01
8.533333099999999831e+02 2.344626841681687057e-01
8.586666900000000169e+02 2.419458961199733305e-01
8.640000000000000000e+02 2.355405221361619450e-01
8.693333099999999831e+02 2.239980746871840511e-01
8.746666900000000169e+02 2.123378045114355794e-01
8.800000000000000000e+02 2.015941659251257179e-01
8.853333099999999831e+02 1.916530420372380972e-01
8.906666900000000169e+02 1.859639519086935810e-01
8.960000000000000000e+02 1.846561129055904749e-01
9.013333099999999831e+02 1.924844439215805114e-01
9.066666900000000169e+02 2.057359055264957048e-01
9.120000000000000000e+02 2.221330826560581062e-01
9.173333099999999831e+02 2.415948898662576005e-01
9.226666900000000169e+02 2.599289933864207813e-01
9.280000000000000000e+02 2.704275773914275316e-01
9.333333099999999831e+02 2.696801750054197977e-01
9.386666900000000169e+02 2.596192585852588053e-01
9.440000000000000000e+02 2.430912673909184640e-01
9.493333099999999831e+02 2.275330362879167678e-01
9.546666900000000169e+02 2.177845701588215777e-01
9.600000000000000000e+02 2.118968056347479423e-01
9.653333099999999831e+02 2.035882942797736239e-01
9.706666900000000169e+02 1.931917410477347885e-01
9.760000000000000000e+02 1.766041113845276400e-01
9.813333099999999831e+02 1.649593816969284199e-01
9.866666900000000169e+02 1.809685077283310628e-01
9.920000000000000000e+02 2.304573591652704645e-01
9.973333099999999831e+02 2.970847107894344363e-01
1.002666699999999992e+03 3.501816623483324231e-01
1.008000000000000000e+03 3.538268313174272039e-01
1.013333300000000008e+03 3.095706714115345481e-01
1.018666699999999992e+03 2.555194450612606194e-01
1.024000000000000000e+03 2.201977598636516431e-01
1.029333399999999983e+03 2.151505978269128150e-01
1.034666600000000017e+03 2.269054730424513999e-01
1.040000000000000000e+03 2.325134459749145510e-01
1.045333399999999983e+03 2.229972071419232260e-01
1.050666600000000017e+03 2.083095000007434139e-01
1.056000000000000000e+03 1.949122451378658971e-01
1.061333399999999983e+03 1.894668876803983770e-01
1.066666600000000017e+03 1.927508750576869823e-01
1.072000000000000000e+03 2.070573092978802709e-01
1.077333399999999983e+03 2.275797032648118057e-01
1.082666600000000017e+03 2.513458173180408983e-01
1.088000000000000000e+03 2.708211993122069394e-01
1.093333399999999983e+03 2.779637321718964049e-01
1.098666600000000017e+03 2.660698244317974415e-01
1.104000000000000000e+03 2.402294775333095322e-01
1.109333399999999983e+03 2.153397276004666294e-01
1.114666600000000017e+03 2.050293999384570909e-01
1.120000000000000000e+03 2.084035460518491034e-01
1.125333399999999983e+03 2.075276116889393230e-01
1.130666600000000017e+03 1.796115329260189186e-01
1.136000000000000000e+03 1.208316601572141796e-01
1.141333399999999983e+03 5.557314111976482257e-02
1.146666600000000017e+03 1.197081658969996812e-02
1.152000000000000000e+03 4.983756775742956627e-03
1.157333399999999983e+03 2.502892663221430170e-02
1.162666600000000017e+03 5.176935390108314966e-02
1.168000000000000000e+03 6.636274403293995761e-02
1.173333399999999983e+03 6.404002159096124080e-02
1.178666600000000017e+03 5.050252531633675490e-02
1.184000000000000000e+03 3.852303961477170080e-02
1.189333399999999983e+03 4.058817445873690033e-02
1.194666600000000017e+03 6.463013980345604093e-02
1.200000000000000000e+03 1.057995059911267105e-01
1.205333399999999983e+03 1.556710984984732427e-01
1.210666600000000017e+03 2.080035940971818875e-01
1.216000000000000000e+03 2.673126092559100497e-01
1.221333399999999983e+03 3.401439991923032591e-01
1.226666600000000017e+03 4.268707813809588525e-01
1.232000000000000000e+03 5.185741078466473697e-01
1.237333399999999983e+03 6.003364007101503752e-01
1.242666600000000017e+03 6.566874649350710191e-01
1.248000000000000000e+03 6.879212667482264010e-01
1.253333399999999983e+03 6.915210860823713945e-01
1.258666600000000017e+03 6.713531578093837604e-01
1.264000000000000000e+03 6.350282690180334422e-01
1.269333399999999983e+03 5.913455596384735724e-01
1.274666600000000017e+03 5.475127091289492265e-01
1.280000000000000000e+03 5.213229260681441213e-01
1.285333399999999983e+03 5.166450654856415969e-01
1.290666600000000017e+03 5.376406983210837431e-01
1.296000000000000000e+03 5.810181120109719766e-01
1.301333399999999983e+03 6.377676687093843944e-01
1.306666600000000017e+03 6.914542540182303521e-01
1.312000000000000000e+03 7.303456788250606291e-01
1.317333399999999983e+03 7.437346751077766882e-01
1.322666600000000017e+03 7.359483161378508331e-01
1.328000000000000000e+03 7.188834637210760325e-01
1.333333399999999983e+03 6.985059339637343934e-01
1.338666600000000017e+03 6.740759992783799115e-01
1.344000000000000000e+03 6.348207834095419555e-01
1.349333399999999983e+03 5.756447047767335734e-01
1.354666600000000017e+03 5.038292097692615990e-01
1.360000000000000000e+03 4.362125538122066937e-01
1.365333399999999983e+03 3.834314768677606344e-01
1.370666600000000017e+03 3.533066487424333380e-01
1.376000000000000000e+03 3.395895938570200889e-01
1.381333399999999983e+03 3.395089265253454780e-01
1.386666600000000017e+03 3.456365512093395043e-01
1.392000000000000000e+03 3.558274452185618553e-01
1.397333399999999983e+03 3.668251743740881810e-01
1.402666600000000017e+03 3.759664210193637834e-01
1.408000000000000000e+03 3.777699447172263025e-01
1.413333399999999983e+03 3.732467789019184301e-01
1.418666600000000017e+03 3.669852398096415391e-01
1.424000000000000000e+03 3.813884691422609330e-01
1.429333399999999983e+03 4.427076593915478253e-01
1.434666600000000017e+03 5.609972439055717075e-01
1.440000000000000000e+03 7.188685021233739425e-01
1.445333399999999983e+03 8.749652110764114532e-01
1.450666600000000017e+03 9.773709261649637936e-01
1.456000000000000000e+03 1.000000000000000000e+00
1.461333399999999983e+03 9.431368222256653056e-01
1.466666600000000017e+03 8.257470475845718472e-01
1.472000000000000000e+03 6.780675286115315226e-01
1.477333399999999983e+03 5.270081831399615613e-01
1.482666600000000017e+03 3.843117243871303490e-01
1.488000000000000000e+03 2.629439520237586425e-01
1.493333399999999983e+03 1.641637809100658096e-01
1.498666600000000017e+03 8.819384821340882363e-02
1.504000000000000000e+03 3.637884764824017569e-02
1.509333399999999983e+03 9.341565155995200723e-03
1.514666600000000017e+03 3.075840348580667627e-03
1.520000000000000000e+03 1.334442624180048886e-02
1.525333399999999983e+03 3.286398101362270757e-02
1.530666600000000017e+03 5.582613272015490846e-02
1.536000000000000000e+03 7.936122746899061664e-02
1.541333399999999983e+03 1.015732280007565075e-01
1.546666600000000017e+03 1.245320297841016749e-01
1.552000000000000000e+03 1.498374847678375366e-01
1.557333399999999983e+03 1.832170934694828668e-01
1.562666600000000017e+03 2.253580100589776813e-01
1.568000000000000000e+03 2.786204882418159001e-01
1.573333399999999983e+03 3.324973658693592959e-01
1.578666600000000017e+03 3.764055652388453854e-01
1.584000000000000000e+03 4.022784129131008468e-01
1.589333399999999983e+03 4.113177632796131133e-01
1.594666600000000017e+03 4.081616464344638984e-01
1.600000000000000000e+03 4.057469287576943584e-01
1.605333399999999983e+03 4.086802916114688489e-01
1.610666600000000017e+03 4.169155166325252404e-01
1.616000000000000000e+03 4.278488865494879390e-01
1.621333399999999983e+03 4.429854077621090402e-01
1.626666600000000017e+03 4.663330860635997999e-01
1.632000000000000000e+03 4.997696505605676021e-01
1.637333399999999983e+03 5.506217061072601338e-01
1.642666600000000017e+03 6.195942872235320475e-01
1.648000000000000000e+03 7.001684772760418118e-01
1.653333399999999983e+03 7.914871542455829134e-01
1.658666600000000017e+03 8.829819167107847422e-01
1.664000000000000000e+03 9.492628353606815672e-01
1.669333399999999983e+03 9.745654114519963773e-01
1.674666600000000017e+03 9.442733957879945184e-01
1.680000000000000000e+03 8.548816319696966870e-01
1.685333399999999983e+03 7.259266216792892301e-01
1.690666600000000017e+03 5.788768913260149418e-01
1.696000000000000000e+03 4.285631790756574966e-01
1.701333399999999983e+03 2.910059813992254552e-01
1.706666600000000017e+03 1.783649225477851874e-01
1.712000000000000000e+03 9.540384415347616387e-02
1.717333399999999983e+03 4.275715788887771152e-02
1.722666600000000017e+03 1.587918360401236600e-02
1.728000000000000000e+03 4.128630642448153157e-03
1.733333399999999983e+03 0.000000000000000000e+00
1.738666600000000017e+03 1.579972578962043038e-03
1.744000000000000000e+03 4.886213171555052644e-03
1.749333399999999983e+03 6.499684688695857651e-03
1.754666600000000017e+03 7.088750425036631324e-03
1.760000000000000000e+03 8.084760466614623539e-03
1.765333399999999983e+03 9.935980995099465141e-03
1.770666600000000017e+03 1.269953992720251543e-02
1.776000000000000000e+03 1.615921469512090342e-02
1.781333399999999983e+03 2.124188955602370962e-02
1.786666600000000017e+03 2.927329346195090692e-02
1.792000000000000000e+03 3.921197598852507044e-02
1.797333399999999983e+03 4.512102350165151515e-02
1.802666600000000017e+03 4.286772778036507248e-02
