6.080000000000000000e+02 4.237341090701823160e-02
6.133333099999999831e+02 4.671031568725330513e-02
6.186666900000000169e+02 4.797337555974687251e-02
6.240000000000000000e+02 4.681264310090228753e-02
6.293333099999999831e+02 4.493861039914576194e-02
6.346666900000000169e+02 4.034184106555602917e-02
6.400000000000000000e+02 3.167399843855267516e-02
6.453333099999999831e+02 1.995311049744527901e-02
6.506666900000000169e+02 7.843706789755244477e-03
6.560000000000000000e+02 0.000000000000000000e+00
6.613333099999999831e+02 1.885002979787517817e-03
6.666666900000000169e+02 1.255813696867649244e-02
6.720000000000000000e+02 2.833755124188966357e-02
6.773333099999999831e+02 4.650572797087405147e-02
6.826666900000000169e+02 6.200554233788487662e-02
6.880000000000000000e+02 7.050346052549208431e-02
6.933333099999999831e+02 7.536868619209004250e-02
6.986666900000000169e+02 7.869142624928950058e-02
7.040000000000000000e+02 8.336388782709916456e-02
7.093333099999999831e+02 9.346583720494240632e-02
7.146666900000000169e+02 1.072656579118488884e-01
7.200000000000000000e+02 1.202006171148344571e-01
7.253333099999999831e+02 1.292589233549745198e-01
7.306666900000000169e+02 1.310282447912675396e-01
7.360000000000000000e+02 1.274844574328090341e-01
7.413333099999999831e+02 1.211572007557999014e-01
7.466666900000000169e+02 1.150675470511825504e-01
7.520000000000000000e+02 1.142039735185094579e-01
7.573333099999999831e+02 1.168812531245071173e-01
7.626666900000000169e+02 1.265471103393360219e-01
7.680000000000000000e+02 1.460210179536346464e-01
7.733333099999999831e+02 1.674267037204639486e-01
7.786666900000000169e+02 1.799772450595650275e-01
7.840000000000000000e+02 1.802071914006186104e-01
7.893333099999999831e+02 1.716360133126264564e-01
7.946666900000000169e+02 1.725305513073586705e-01
8.000000000000000000e+02 1.975000940177321918e-01
8.053333099999999831e+02 2.420785780825874811e-01
8.106666900000000169e+02 2.875848324983900084e-01
8.160000000000000000e+02 3.129480485494359199e-01
8.213333099999999831e+02 3.121486908849900321e-01
8.266666900000000169e+02 3.009976898682838464e-01
8.320000000000000000e+02 3.017314688901581166e-01
8.373333099999999831e+02 3.268809471699067881e-01
8.426666900000000169e+02 3.754087038931701037e-01
8.480000000000000000e+02 4.255350151588234708e-01
8.533333099999999831e+02 4.577374384335764490e-01
8.586666900000000169e+02 4.699612615511206681e-01
8.640000000000000000e+02 4.670579098780140437e-01
8.693333099999999831e+02 4.547527265321238965e-01
8.746666900000000169e+02 4.369957482367133328e-01
8.800000000000000000e+02 4.107509206908739885e-01
8.853333099999999831e+02 3.749824820756585408e-01
8.906666900000000169e+02 3.435293345376436713e-01
8.960000000000000000e+02 3.296106690986143062e-01
9.013333099999999831e+02 3.404801180790391069e-01
9.066666900000000169e+02 3.724691627815836514e-01
9.120000000000000000e+02 4.141232550691146264e-01
9.173333099999999831e+02 4.475797152933808087e-01
9.226666900000000169e+02 4.644816900902603574e-01
9.280000000000000000e+02 4.628199996971110175e-01
9.333333099999999831e+02 4.466203525663062779e-01
9.386666900000000169e+02 4.218243576124766636e-01
9.440000000000000000e+02 3.931986794410966546e-01
9.493333099999999831e+02 3.658663122433250536e-01
9.546666900000000169e+02 3.458588194274316852e-01
9.600000000000000000e+02 3.370532289682902083e-01
9.653333099999999831e+02 3.379645089122049195e-01
9.706666900000000169e+02 3.402274979677412658e-01
9.760000000000000000e+02 3.368637512120157829e-01
9.813333099999999831e+02 3.389079150920820127e-01
9.866666900000000169e+02 3.552123570927311347e-01
9.920000000000000000e+02 3.857774418657898829e-01
9.973333099999999831e+02 4.184152566949357888e-01
1.002666699999999992e+03 4.284664542405312582e-01
1.008000000000000000e+03 4.058116873140060754e-01
1.013333300000000008e+03 3.768171430316262782e-01
1.018666699999999992e+03 3.612825288172897831e-01
1.024000000000000000e+03 3.665269548276486877e-01
1.029333399999999983e+03 3.842112897773456437e-01
1.034666600000000017e+03 3.924815891459370043e-01
1.040000000000000000e+03 3.820711530484089957e-01
1.045333399999999983e+03 3.606296147832620536e-01
1.050666600000000017e+03 3.322703137487034719e-01
1.056000000000000000e+03 3.038411413346470136e-01
1.061333399999999983e+03 2.829431374053614778e-01
1.066666600000000017e+03 2.734820556389447876e-01
1.072000000000000000e+03 2.797670459668848975e-01
1.077333399999999983e+03 2.970324777590734322e-01
1.082666600000000017e+03 3.182887109407592785e-01
1.088000000000000000e+03 3.377943536241590494e-01
1.093333399999999983e+03 3.460798586331165771e-01
1.098666600000000017e+03 3.336195537634459862e-01
1.104000000000000000e+03 2.973745233901880503e-01
1.109333399999999983e+03 2.440526304208109620e-01
1.114666600000000017e+03 1.915477140362141506e-01
1.120000000000000000e+03 1.521629366278874074e-01
1.125333399999999983e+03 1.195242092842035142e-01
1.130666600000000017e+03 8.513186564998484473e-02
1.136000000000000000e+03 4.615445483776640934e-02
1.141333399999999983e+03 1.275104791106494197e-02
1.146666600000000017e+03 3.440312450523433721e-03
1.152000000000000000e+03 2.299202076459117700e-02
1.157333399999999983e+03 5.758567578827479549e-02
1.162666600000000017e+03 8.834457797979132498e-02
1.168000000000000000e+03 1.050342746321531046e-01
1.173333399999999983e+03 1.101247179882220428e-01
1.178666600000000017e+03 1.134779330521098473e-01
1.184000000000000000e+03 1.273703479881686529e-01
1.189333399999999983e+03 1.550398639474195595e-01
1.194666600000000017e+03 1.915404567685802806e-01
1.200000000000000000e+03 2.299961176795503048e-01
1.205333399999999983e+03 2.651860237653341223e-01
1.210666600000000017e+03 2.995555932894338746e-01
1.216000000000000000e+03 3.499836386027220803e-01
1.221333399999999983e+03 4.286729468080783256e-01
1.226666600000000017e+03 5.337004000634518741e-01
1.232000000000000000e+03 6.465537845291350338e-01
1.237333399999999983e+03 7.344647298328640384e-01
1.242666600000000017e+03 7.789366967107308470e-01
1.248000000000000000e+03 7.809070952721517411e-01
1.253333399999999983e+03 7.524974163920704617e-01
1.258666600000000017e+03 7.124747743975697878e-01
1.264000000000000000e+03 6.809796837174940665e-01
1.269333399999999983e+03 6.555235080991459462e-01
1.274666600000000017e+03 6.329719035569769670e-01
1.280000000000000000e+03 6.096560085527767958e-01
1.285333399999999983e+03 5.869130838067336819e-01
1.290666600000000017e+03 5.734596111748971881e-01
1.296000000000000000e+03 5.833235528479862042e-01
1.301333399999999983e+03 6.100893254673723787e-01
1.306666600000000017e+03 6.417685033583350185e-01
1.312000000000000000e+03 6.641155948614554383e-01
1.317333399999999983e+03 6.715140655559129756e-01
1.322666600000000017e+03 6.670796587761471663e-01
1.328000000000000000e+03 6.556863217397458365e-01
1.333333399999999983e+03 6.296546669223562764e-01
1.338666600000000017e+03 5.884695653430078721e-01
1.344000000000000000e+03 5.282112000317620293e-01
1.349333399999999983e+03 4.578260643113072903e-01
1.354666600000000017e+03 3.947011941666009882e-01
1.360000000000000000e+03 3.511821048333499395e-01
1.365333399999999983e+03 3.244039879610768340e-01
1.370666600000000017e+03 3.181018317999489975e-01
1.376000000000000000e+03 3.212741868509622067e-01
1.381333399999999983e+03 3.244502552162752962e-01
1.386666600000000017e+03 3.238255971270175837e-01
1.392000000000000000e+03 3.222428862270058647e-01
1.397333399999999983e+03 3.224800483091181391e-01
1.402666600000000017e+03 3.368819381462204166e-01
1.408000000000000000e+03 3.668223177655310363e-01
1.413333399999999983e+03 4.027723557830219514e-01
1.418666600000000017e+03 4.391659944513499059e-01
1.424000000000000000e+03 4.897645904910261083e-01
1.429333399999999983e+03 5.678290769932831106e-01
1.434666600000000017e+03 6.827932713896160966e-01
1.440000000000000000e+03 8.202784062083942063e-01
1.445333399999999983e+03 9.398449081121253990e-01
1.450666600000000017e+03 1.000000000000000000e+00
1.456000000000000000e+03 9.857040126142363468e-01
1.461333399999999983e+03 8.971128104141117277e-01
1.466666600000000017e+03 7.591251609046170135e-01
1.472000000000000000e+03 5.992060187222438827e-01
1.477333399999999983e+03 4.376230753573711607e-01
1.482666600000000017e+03 2.910516400417147986e-01
1.488000000000000000e+03 1.749151162599659193e-01
1.493333399999999983e+03 9.364583251267111219e-02
1.498666600000000017e+03 4.923004743473310962e-02
1.504000000000000000e+03 3.260169599763491910e-02
1.509333399999999983e+03 2.762573598439759665e-02
1.514666600000000017e+03 2.142630781785948013e-02
1.520000000000000000e+03 1.344047256684884409e-02
1.525333399999999983e+03 7.360897686400202228e-03
1.530666600000000017e+03 8.052994971279869851e-03
1.536000000000000000e+03 1.840208367870991082e-02
1.541333399999999983e+03 3.571529339009386905e-02
1.546666600000000017e+03 5.394089352845659463e-02
1.552000000000000000e+03 7.534156256146561093e-02
1.557333399999999983e+03 1.015901241732427157e-01
1.562666600000000017e+03 1.307389709412927203e-01
1.568000000000000000e+03 1.596365195730569397e-01
1.573333399999999983e+03 1.839856325179612395e-01
1.578666600000000017e+03 1.931666974965024486e-01
1.584000000000000000e+03 1.919103370639488049e-01
1.589333399999999983e+03 1.933906048892579110e-01
1.594666600000000017e+03 2.053511556889022760e-01
1.600000000000000000e+03 2.336075024575236525e-01
1.605333399999999983e+03 2.739428080662817400e-01
1.610666600000000017e+03 3.096739017990378651e-01
1.616000000000000000e+03 3.362101722705275741e-01
1.621333399999999983e+03 3.627384769739882553e-01
1.626666600000000017e+03 3.966212262552860635e-01
1.632000000000000000e+03 4.496834681390552424e-01
1.637333399999999983e+03 5.219593681158598564e-01
1.642666600000000017e+03 6.102433019695779892e-01
1.648000000000000000e+03 7.048835772327697313e-01
1.653333399999999983e+03 7.973458798332119235e-01
1.658666600000000017e+03 8.709947348320712379e-01
1.664000000000000000e+03 9.131480526762504324e-01
1.669333399999999983e+03 9.105600452531773525e-01
1.674666600000000017e+03 8.645136667429972332e-01
1.680000000000000000e+03 7.789304674046111376e-01
1.685333399999999983e+03 6.653000128559649617e-01
1.690666600000000017e+03 5.382220018640547776e-01
1.696000000000000000e+03 4.123314024568483505e-01
1.701333399999999983e+03 2.968291110184229642e-01
1.706666600000000017e+03 2.012765910454007434e-01
1.712000000000000000e+03 1.273725304035512873e-01
1.717333399999999983e+03 7.515008228270492197e-02
1.722666600000000017e+03 4.379135581030567381e-02
1.728000000000000000e+03 2.698980656661641858e-02
1.733333399999999983e+03 2.008206844739569147e-02
1.738666600000000017e+03 1.984110733500548535e-02
1.744000000000000000e+03 2.203631050883213260e-02
1.749333399999999983e+03 2.496888759163927440e-02
1.754666600000000017e+03 2.530284503462728457e-02
1.760000000000000000e+03 2.290372701908954117e-02
1.765333399999999983e+03 2.162772551901468582e-02
1.770666600000000017e+03 2.325471230171453213e-02
1.776000000000000000e+03 2.735781448841687058e-02
1.781333399999999983e+03 3.049393646516627976e-02
1.786666600000000017e+03 2.795382827466986325e-02
1.792000000000000000e+03 2.088708553275204702e-02
1.797333399999999983e+03 1.241451315931278720e-02
1.802666600000000017e+03 4.595823011933247541e-03
