6.080000000000000000e+02 4.634897080720132290e-02
6.133333099999999831e+02 5.509566136375758372e-02
6.186666900000000169e+02 5.637248703266285743e-02
6.240000000000000000e+02 5.257503503933139144e-02
6.293333099999999831e+02 4.935598470150392297e-02
6.346666900000000169e+02 3.938819109624329406e-02
6.400000000000000000e+02 2.472568846038096860e-02
6.453333099999999831e+02 1.121228238524713851e-02
6.506666900000000169e+02 1.703567042562555492e-03
6.560000000000000000e+02 0.000000000000000000e+00
6.613333099999999831e+02 8.538127650591798706e-03
6.666666900000000169e+02 1.640709296866748462e-02
6.720000000000000000e+02 2.253206526442229005e-02
6.773333099999999831e+02 3.134605595541712503e-02
6.826666900000000169e+02 4.845823703789687437e-02
6.880000000000000000e+02 7.411987900043055799e-02
6.933333099999999831e+02 1.014475122208214897e-01
6.986666900000000169e+02 1.192265040739216575e-01
7.040000000000000000e+02 1.253906282251234239e-01
7.093333099999999831e+02 1.253967259288620295e-01
7.146666900000000169e+02 1.223124091597634355e-01
7.200000000000000000e+02 1.163425298148295234e-01
7.253333099999999831e+02 1.103641566671268448e-01
7.306666900000000169e+02 1.019531600290167622e-01
7.360000000000000000e+02 9.461359456251772215e-02
7.413333099999999831e+02 9.199883466284355937e-02
7.466666900000000169e+02 8.986455667523665647e-02
7.520000000000000000e+02 8.084182163315004055e-02
7.573333099999999831e+02 6.732966958795755241e-02
7.626666900000000169e+02 5.027985704730430355e-02
7.680000000000000000e+02 3.527615625376594177e-02
7.733333099999999831e+02 2.589021387382112876e-02
7.786666900000000169e+02 2.707197183790628972e-02
7.840000000000000000e+02 3.865781702456644320e-02
7.893333099999999831e+02 5.765957148307581520e-02
7.946666900000000169e+02 8.205290721027425072e-02
8.000000000000000000e+02 1.148675406164629820e-01
8.053333099999999831e+02 1.527012970727503749e-01
8.106666900000000169e+02 1.933470575900914645e-01
8.160000000000000000e+02 2.323637670773024966e-01
8.213333099999999831e+02 2.588230946024507872e-01
8.266666900000000169e+02 2.749509338737329833e-01
8.320000000000000000e+02 2.891623395508644001e-01
8.373333099999999831e+02 3.045242747369839575e-01
8.426666900000000169e+02 3.148261845493400823e-01
8.480000000000000000e+02 3.118373376090408100e-01
8.533333099999999831e+02 2.879765969823491201e-01
8.586666900000000169e+02 2.586782326265630316e-01
8.640000000000000000e+02 2.353084424943847619e-01
8.693333099999999831e+02 2.281860389614473461e-01
8.746666900000000169e+02 2.338171686847634601e-01
8.800000000000000000e+02 2.392628596928316753e-01
8.853333099999999831e+02 2.362664574331528045e-01
8.906666900000000169e+02 2.307473241135399311e-01
8.960000000000000000e+02 2.225727985019010924e-01
9.013333099999999831e+02 2.205196917503917386e-01
9.066666900000000169e+02 2.282696330179458666e-01
9.120000000000000000e+02 2.421408131331576341e-01
9.173333099999999831e+02 2.553918654366120200e-01
9.226666900000000169e+02 2.628857055931581588e-01
9.280000000000000000e+02 2.599928299449728586e-01
9.333333099999999831e+02 2.526798423402976113e-01
9.386666900000000169e+02 2.512752573065590855e-01
9.440000000000000000e+02 2.585268107786009573e-01
9.493333099999999831e+02 2.645244028816235993e-01
9.546666900000000169e+02 2.674558601531787372e-01
9.600000000000000000e+02 2.670449529958433543e-01
9.653333099999999831e+02 2.640031404471093746e-01
9.706666900000000169e+02 2.641215985376447195e-01
9.760000000000000000e+02 2.796701550719699614e-01
9.813333099999999831e+02 3.160273249389958794e-01
9.866666900000000169e+02 3.785634822085040541e-01
9.920000000000000000e+02 4.495416983045976700e-01
9.973333099999999831e+02 4.928045435108884820e-01
1.002666699999999992e+03 4.792159191674036922e-01
1.008000000000000000e+03 4.248735775775782098e-01
1.013333300000000008e+03 3.655673706436697867e-01
1.018666699999999992e+03 3.398100559620371164e-01
1.024000000000000000e+03 3.570741163530086193e-01
1.029333399999999983e+03 3.989252613533689207e-01
1.034666600000000017e+03 4.312750725549035491e-01
1.040000000000000000e+03 4.358294631878353864e-01
1.045333399999999983e+03 4.094342501264981449e-01
1.050666600000000017e+03 3.627199237183136304e-01
1.056000000000000000e+03 3.127379796926356148e-01
1.061333399999999983e+03 2.752390645183696583e-01
1.066666600000000017e+03 2.533054983830602125e-01
1.072000000000000000e+03 2.425579038871564230e-01
1.077333399999999983e+03 2.394692386535143269e-01
1.082666600000000017e+03 2.381341765488342310e-01
1.088000000000000000e+03 2.324056599468393158e-01
1.093333399999999983e+03 2.157654862211980662e-01
1.098666600000000017e+03 1.876621828780798418e-01
1.104000000000000000e+03 1.574616994894362798e-01
1.109333399999999983e+03 1.378248139054810972e-01
1.114666600000000017e+03 1.273495703199028217e-01
1.120000000000000000e+03 1.117084207431156412e-01
1.125333399999999983e+03 8.100687065804922093e-02
1.130666600000000017e+03 4.125192965628610153e-02
1.136000000000000000e+03 1.034645042488416614e-02
1.141333399999999983e+03 4.405486119550438250e-03
1.146666600000000017e+03 1.951153865857433237e-02
1.152000000000000000e+03 4.234252232249314379e-02
1.157333399999999983e+03 6.629735457031336876e-02
1.162666600000000017e+03 8.133517999350380057e-02
1.168000000000000000e+03 8.107565228122969037e-02
1.173333399999999983e+03 7.390688911568550623e-02
1.178666600000000017e+03 6.679358234339202727e-02
1.184000000000000000e+03 7.313663889964956699e-02
1.189333399999999983e+03 1.122746429720178629e-01
1.194666600000000017e+03 1.739028220861731922e-01
1.200000000000000000e+03 2.372925714118926943e-01
1.205333399999999983e+03 2.994985754068970607e-01
1.210666600000000017e+03 3.595072185889400807e-01
1.216000000000000000e+03 4.225116372889134997e-01
1.221333399999999983e+03 4.970209823287309869e-01
1.226666600000000017e+03 5.736060305179091490e-01
1.232000000000000000e+03 6.289665854381906174e-01
1.237333399999999983e+03 6.564629210436380147e-01
1.242666600000000017e+03 6.589778712516473069e-01
1.248000000000000000e+03 6.400569332383890808e-01
1.253333399999999983e+03 6.113830756281353196e-01
1.258666600000000017e+03 5.883318662498520091e-01
1.264000000000000000e+03 5.698006521769294341e-01
1.269333399999999983e+03 5.566027775160495850e-01
1.274666600000000017e+03 5.464111264439213134e-01
1.280000000000000000e+03 5.296894081479266436e-01
1.285333399999999983e+03 5.089752719154689853e-01
1.290666600000000017e+03 4.996835454384446762e-01
1.296000000000000000e+03 5.139903779391287175e-01
1.301333399999999983e+03 5.593952497243874777e-01
1.306666600000000017e+03 6.236691665841140875e-01
1.312000000000000000e+03 6.842606068792563834e-01
1.317333399999999983e+03 7.245880416762456866e-01
1.322666600000000017e+03 7.352864614172371915e-01
1.328000000000000000e+03 7.167935459161530742e-01
1.333333399999999983e+03 6.821420619082596559e-01
1.338666600000000017e+03 6.351550135515712237e-01
1.344000000000000000e+03 5.745083999305843347e-01
1.349333399999999983e+03 5.064956260559784207e-01
1.354666600000000017e+03 4.341197567262232715e-01
1.360000000000000000e+03 3.666216395804257622e-01
1.365333399999999983e+03 3.207807447152526970e-01
1.370666600000000017e+03 3.033977326941448838e-01
1.376000000000000000e+03 3.035528071050453969e-01
1.381333399999999983e+03 3.138358341374754001e-01
1.386666600000000017e+03 3.262481864527794206e-01
1.392000000000000000e+03 3.440130315989846643e-01
1.397333399999999983e+03 3.674292588557083183e-01
1.402666600000000017e+03 3.963308973360996079e-01
1.408000000000000000e+03 4.206876975654263995e-01
1.413333399999999983e+03 4.423811535742361856e-01
1.418666600000000017e+03 4.759186664089386509e-01
1.424000000000000000e+03 5.448401409834644493e-01
1.429333399999999983e+03 6.562243060044263832e-01
1.434666600000000017e+03 7.954982472129408233e-01
1.440000000000000000e+03 9.201625660070454904e-01
1.445333399999999983e+03 9.912257848881479427e-01
1.450666600000000017e+03 9.872307631421191054e-01
1.456000000000000000e+03 9.113836820890944823e-01
1.461333399999999983e+03 7.863961489492622414e-01
1.466666600000000017e+03 6.352778045508971072e-01
1.472000000000000000e+03 4.742156699333323622e-01
1.477333399999999983e+03 3.195721030288086739e-01
1.482666600000000017e+03 1.899423452885735941e-01
1.488000000000000000e+03 9.374587113774431046e-02
1.493333399999999983e+03 3.541550282159153240e-02
1.498666600000000017e+03 9.962650558539027507e-03
1.504000000000000000e+03 6.872772306095739116e-03
1.509333399999999983e+03 1.099427957075227273e-02
1.514666600000000017e+03 1.685020582634846539e-02
1.520000000000000000e+03 2.137188805880036596e-02
1.525333399999999983e+03 2.825720586926107336e-02
1.530666600000000017e+03 4.552681779626106123e-02
1.536000000000000000e+03 7.858552849404369656e-02
1.541333399999999983e+03 1.220817981875349512e-01
1.546666600000000017e+03 1.649827588143163992e-01
1.552000000000000000e+03 1.991949418270168581e-01
1.557333399999999983e+03 2.171254382109784331e-01
1.562666600000000017e+03 2.188413468497614756e-01
1.568000000000000000e+03 2.085776743750535900e-01
1.573333399999999983e+03 1.991299962926903477e-01
1.578666600000000017e+03 2.004148466987689947e-01
1.584000000000000000e+03 2.287302468231395547e-01
1.589333399999999983e+03 2.832287611665262328e-01
1.594666600000000017e+03 3.479730104755257014e-01
1.600000000000000000e+03 3.990467961120822138e-01
1.605333399999999983e+03 4.229572737507144020e-01
1.610666600000000017e+03 4.144118648646737402e-01
1.616000000000000000e+03 3.959269124312104760e-01
1.621333399999999983e+03 3.843429064889713476e-01
1.626666600000000017e+03 3.921343654017701574e-01
1.632000000000000000e+03 4.273983863918557891e-01
1.637333399999999983e+03 4.891141977158628418e-01
1.642666600000000017e+03 5.759552651195031236e-01
1.648000000000000000e+03 6.947719326084758062e-01
1.653333399999999983e+03 8.271567768871479487e-01
1.658666600000000017e+03 9.417105607619890018e-01
1.664000000000000000e+03 1.000000000000000000e+00
1.669333399999999983e+03 9.712885635265383621e-01
1.674666600000000017e+03 8.631831834808985082e-01
1.680000000000000000e+03 7.161635558792873724e-01
1.685333399999999983e+03 5.615792909564830682e-01
1.690666600000000017e+03 4.210220581350314073e-01
1.696000000000000000e+03 2.992749322229540931e-01
1.701333399999999983e+03 1.919275765226607366e-01
1.706666600000000017e+03 1.056084283846993599e-01
1.712000000000000000e+03 4.805341125578226763e-02
1.717333399999999983e+03 1.647966720033285787e-02
1.722666600000000017e+03 7.171686881457041939e-03
1.728000000000000000e+03 9.943844126258035571e-03
1.733333399999999983e+03 1.367711273375030179e-02
1.738666600000000017e+03 1.480102023128941971e-02
1.744000000000000000e+03 1.240298420801402152e-02
1.749333399999999983e+03 8.151328020092689017e-03
1.754666600000000017e+03 8.753993586474582284e-03
1.760000000000000000e+03 1.413463132853006246e-02
1.765333399999999983e+03 2.273376845742974134e-02
1.770666600000000017e+03 2.991431211199077969e-02
1.776000000000000000e+03 3.570637294472048251e-02
1.781333399999999983e+03 3.792520322776461728e-02
1.786666600000000017e+03 3.731113623178509975e-02
1.792000000000000000e+03 3.334671410532958485e-02
1.797333399999999983e+03 2.474089076715149313e-02
1.802666600000000017e+03 1.051820783020416400e-02
