6.080000000000000000e+02 5.646843700214154715e-02
6.133333099999999831e+02 4.894502100167655301e-02
6.186666900000000169e+02 3.399311168912190484e-02
6.240000000000000000e+02 1.748244841753316195e-02
6.293333099999999831e+02 6.647827121515168837e-03
6.346666900000000169e+02 9.312726380796864864e-03
6.400000000000000000e+02 1.689952621200650068e-02
6.453333099999999831e+02 2.442967558576826514e-02
6.506666900000000169e+02 2.906616580836031069e-02
6.560000000000000000e+02 2.984287787565902822e-02
6.613333099999999831e+02 2.956504559951760383e-02
6.666666900000000169e+02 3.188608128104351846e-02
6.720000000000000000e+02 2.980092981182881282e-02
6.773333099999999831e+02 1.911869267979808551e-02
6.826666900000000169e+02 7.439469967296162209e-03
6.880000000000000000e+02 0.000000000000000000e+00
6.933333099999999831e+02 8.907871556217226289e-04
6.986666900000000169e+02 1.037155990583897049e-02
7.040000000000000000e+02 2.233572456281593052e-02
7.093333099999999831e+02 2.899070962849145325e-02
7.146666900000000169e+02 3.374913676635064863e-02
7.200000000000000000e+02 4.053434750786046037e-02
7.253333099999999831e+02 5.178016806717056220e-02
7.306666900000000169e+02 6.239081936295635955e-02
7.360000000000000000e+02 7.004822275338624948e-02
7.413333099999999831e+02 7.288424726615171101e-02
7.466666900000000169e+02 7.235972731782691625e-02
7.520000000000000000e+02 7.361535278889878853e-02
7.573333099999999831e+02 7.339669339505464074e-02
7.626666900000000169e+02 6.219413126999695507e-02
7.680000000000000000e+02 4.617125046664319332e-02
7.733333099999999831e+02 3.417533597106162113e-02
7.786666900000000169e+02 2.701085793314333267e-02
7.840000000000000000e+02 2.347624501653071405e-02
7.893333099999999831e+02 1.703763694207095780e-02
7.946666900000000169e+02 6.957776796716493711e-03
8.000000000000000000e+02 5.833107490763313370e-03
8.053333099999999831e+02 2.502631921511146162e-02
8.106666900000000169e+02 6.044154882605669299e-02
8.160000000000000000e+02 1.014229802083083803e-01
8.213333099999999831e+02 1.352560820295588551e-01
8.266666900000000169e+02 1.565232653497810045e-01
8.320000000000000000e+02 1.724277301519510919e-01
8.373333099999999831e+02 1.925376765320680472e-01
8.426666900000000169e+02 2.255163375046131402e-01
8.480000000000000000e+02 2.733491544475573631e-01
8.533333099999999831e+02 3.224914463002773179e-01
8.586666900000000169e+02 3.551904136952849234e-01
8.640000000000000000e+02 3.669482563612398995e-01
8.693333099999999831e+02 3.570803701108268280e-01
8.746666900000000169e+02 3.370709674849098336e-01
8.800000000000000000e+02 3.178360423300067850e-01
8.853333099999999831e+02 2.991158976328440189e-01
8.906666900000000169e+02 2.827786392350785660e-01
8.960000000000000000e+02 2.737567397250744161e-01
9.013333099999999831e+02 2.723825289350531031e-01
9.066666900000000169e+02 2.825711791545932328e-01
9.120000000000000000e+02 3.035226644639025806e-01
9.173333099999999831e+02 3.277067641387889640e-01
9.226666900000000169e+02 3.472833766245752019e-01
9.280000000000000000e+02 3.565150128845225863e-01
9.333333099999999831e+02 3.537520739050109553e-01
9.386666900000000169e+02 3.437216049034638732e-01
9.440000000000000000e+02 3.310142136479273245e-01
9.493333099999999831e+02 3.208931570239075826e-01
9.546666900000000169e+02 3.105478250401768614e-01
9.600000000000000000e+02 2.994707858603943285e-01
9.653333099999999831e+02 2.888706311627081691e-01
9.706666900000000169e+02 2.767133708149613902e-01
9.760000000000000000e+02 2.603859761979857579e-01
9.813333099999999831e+02 2.491501280532653906e-01
9.866666900000000169e+02 2.592383205868800111e-01
9.920000000000000000e+02 3.000038179648598646e-01
9.973333099999999831e+02 3.648141878063364540e-01
1.002666699999999992e+03 4.215990735582525462e-01
1.008000000000000000e+03 4.313090927154035192e-01
1.013333300000000008e+03 3.872510836299922765e-01
1.018666699999999992e+03 3.266164747017400449e-01
1.024000000000000000e+03 2.913117260491719929e-01
1.029333399999999983e+03 3.079856089986147683e-01
1.034666600000000017e+03 3.615059560804185224e-01
1.040000000000000000e+03 4.121103140657788044e-01
1.045333399999999983e+03 4.277556371373667510e-01
1.050666600000000017e+03 4.030024910230859958e-01
1.056000000000000000e+03 3.510108315320666361e-01
1.061333399999999983e+03 2.980563497595817291e-01
1.066666600000000017e+03 2.602297349739756127e-01
1.072000000000000000e+03 2.482442656669875403e-01
1.077333399999999983e+03 2.579973514313685934e-01
1.082666600000000017e+03 2.769177868947689802e-01
1.088000000000000000e+03 2.944229446822749785e-01
1.093333399999999983e+03 2.988976009301893000e-01
1.098666600000000017e+03 2.834035351632087640e-01
1.104000000000000000e+03 2.534269938795831734e-01
1.109333399999999983e+03 2.191383016632528491e-01
1.114666600000000017e+03 1.928474072022229591e-01
1.120000000000000000e+03 1.834381413139434258e-01
1.125333399999999983e+03 1.761038018187646437e-01
1.130666600000000017e+03 1.519381654640266366e-01
1.136000000000000000e+03 1.044393224434500833e-01
1.141333399999999983e+03 4.955515922171568888e-02
1.146666600000000017e+03 1.168083165200512960e-02
1.152000000000000000e+03 9.760805912119002725e-03
1.157333399999999983e+03 3.552207397457950167e-02
1.162666600000000017e+03 7.166954564357443103e-02
1.168000000000000000e+03 9.672807995768971379e-02
1.173333399999999983e+03 1.074155392817979365e-01
1.178666600000000017e+03 1.034856326199751902e-01
1.184000000000000000e+03 9.231476856366296890e-02
1.189333399999999983e+03 8.425742858885917896e-02
1.194666600000000017e+03 9.642798649533446120e-02
1.200000000000000000e+03 1.261545410285966062e-01
1.205333399999999983e+03 1.714108162241592681e-01
1.210666600000000017e+03 2.168684495098869569e-01
1.216000000000000000e+03 2.584469996925342072e-01
1.221333399999999983e+03 3.045734516608492037e-01
1.226666600000000017e+03 3.707585548434573774e-01
1.232000000000000000e+03 4.640957429031868919e-01
1.237333399999999983e+03 5.713271373994718294e-01
1.242666600000000017e+03 6.657806949754060399e-01
1.248000000000000000e+03 7.300758265551628989e-01
1.253333399999999983e+03 7.528556566100106373e-01
1.258666600000000017e+03 7.382999894745279068e-01
1.264000000000000000e+03 7.110348920997161537e-01
1.269333399999999983e+03 6.781817461555742499e-01
1.274666600000000017e+03 6.485602177278255720e-01
1.280000000000000000e+03 6.262524900874334444e-01
1.285333399999999983e+03 6.054191505570510889e-01
1.290666600000000017e+03 5.891028833665267195e-01
1.296000000000000000e+03 5.871132886677853380e-01
1.301333399999999983e+03 5.974252903802473869e-01
1.306666600000000017e+03 6.182560425865699649e-01
1.312000000000000000e+03 6.377757967562018848e-01
1.317333399999999983e+03 6.466758684049972450e-01
1.322666600000000017e+03 6.442698650903502244e-01
1.328000000000000000e+03 6.372370773874336258e-01
1.333333399999999983e+03 6.331797860699504010e-01
1.338666600000000017e+03 6.289536638930561807e-01
1.344000000000000000e+03 6.061257830710133909e-01
1.349333399999999983e+03 5.588749789209374041e-01
1.354666600000000017e+03 4.869183033411848549e-01
1.360000000000000000e+03 4.107967227619768735e-01
1.365333399999999983e+03 3.576539839196244963e-01
1.370666600000000017e+03 3.357357771920461698e-01
1.376000000000000000e+03 3.314736228961751574e-01
1.381333399999999983e+03 3.339804483771515731e-01
1.386666600000000017e+03 3.308985928340633653e-01
1.392000000000000000e+03 3.227418985136544793e-01
1.397333399999999983e+03 3.182047489202913249e-01
1.402666600000000017e+03 3.219308308997285151e-01
1.408000000000000000e+03 3.325590474140133757e-01
1.413333399999999983e+03 3.485089338723357799e-01
1.418666600000000017e+03 3.643421366206222589e-01
1.424000000000000000e+03 3.863348495337644573e-01
1.429333399999999983e+03 4.332351450524043468e-01
1.434666600000000017e+03 5.203858357686902414e-01
1.440000000000000000e+03 6.516570137715039790e-01
1.445333399999999983e+03 8.033241815691369858e-01
1.450666600000000017e+03 9.301448185382313882e-01
1.456000000000000000e+03 9.999999999999998890e-01
1.461333399999999983e+03 9.936866578293295227e-01
1.466666600000000017e+03 9.108201988153589168e-01
1.472000000000000000e+03 7.725947392142765713e-01
1.477333399999999983e+03 6.031642920250869233e-01
1.482666600000000017e+03 4.297654049887217886e-01
1.488000000000000000e+03 2.814328989469763176e-01
1.493333399999999983e+03 1.689093971184971454e-01
1.498666600000000017e+03 9.199320517547089626e-02
1.504000000000000000e+03 4.504901249003066821e-02
1.509333399999999983e+03 1.931761307106576175e-02
1.514666600000000017e+03 8.120844575634410256e-03
1.520000000000000000e+03 6.854923547457991012e-03
1.525333399999999983e+03 1.003244765847317865e-02
1.530666600000000017e+03 1.553365180992461424e-02
1.536000000000000000e+03 2.220811086054936406e-02
1.541333399999999983e+03 3.507520048859195938e-02
1.546666600000000017e+03 5.408820521253063229e-02
1.552000000000000000e+03 7.583226588643735000e-02
1.557333399999999983e+03 9.558989126509852274e-02
1.562666600000000017e+03 1.124090398862609974e-01
1.568000000000000000e+03 1.270197153181560901e-01
1.573333399999999983e+03 1.473943841427319545e-01
1.578666600000000017e+03 1.747972094482276584e-01
1.584000000000000000e+03 2.042028072762130109e-01
1.589333399999999983e+03 2.300447978570699104e-01
1.594666600000000017e+03 2.514090133169668562e-01
1.600000000000000000e+03 2.712778302902160710e-01
1.605333399999999983e+03 2.946123900985009869e-01
1.610666600000000017e+03 3.236580645339940387e-01
1.616000000000000000e+03 3.518528936364170856e-01
1.621333399999999983e+03 3.749397565270343735e-01
1.626666600000000017e+03 3.994069644405811581e-01
1.632000000000000000e+03 4.309424016486835263e-01
1.637333399999999983e+03 4.761715540012378400e-01
1.642666600000000017e+03 5.397272278189255701e-01
1.648000000000000000e+03 6.191468935786896832e-01
1.653333399999999983e+03 7.087010883456762445e-01
1.658666600000000017e+03 8.044750534389490948e-01
1.664000000000000000e+03 8.870237334997926881e-01
1.669333399999999983e+03 9.337691887480509267e-01
1.674666600000000017e+03 9.261316142570511500e-01
1.680000000000000000e+03 8.630187669833248032e-01
1.685333399999999983e+03 7.567874731807258115e-01
1.690666600000000017e+03 6.282341544481643281e-01
1.696000000000000000e+03 4.936746549865053124e-01
1.701333399999999983e+03 3.638224314009818050e-01
1.706666600000000017e+03 2.475462181077267565e-01
1.712000000000000000e+03 1.560064833884014512e-01
1.717333399999999983e+03 9.306388857316841290e-02
1.722666600000000017e+03 5.383837377863537332e-02
1.728000000000000000e+03 3.106129812628741216e-02
1.733333399999999983e+03 1.757599597712108941e-02
1.738666600000000017e+03 9.823353756569678380e-03
1.744000000000000000e+03 7.121745735357806403e-03
1.749333399999999983e+03 6.981224274495398049e-03
1.754666600000000017e+03 7.740979105979163208e-03
1.760000000000000000e+03 7.085114965219577003e-03
1.765333399999999983e+03 6.836163295154706367e-03
1.770666600000000017e+03 7.712000244416992827e-03
1.776000000000000000e+03 1.000274623033894049e-02
1.781333399999999983e+03 1.668299800574393754e-02
1.786666600000000017e+03 2.870181625246605306e-02
1.792000000000000000e+03 3.861582734237917203e-02
1.797333399999999983e+03 3.904477927023393413e-02
1.802666600000000017e+03 2.344814506094724388e-02
