6.080000000000000000e+02 5.004554646353457509e-02
6.133333099999999831e+02 2.502272996293897211e-02
6.186666900000000169e+02 2.081872867433000318e-02
6.240000000000000000e+02 2.733946318668582787e-02
6.293333099999999831e+02 3.192586958410210257e-02
6.346666900000000169e+02 2.482189612179196148e-02
6.400000000000000000e+02 1.070128847798863629e-02
6.453333099999999831e+02 1.160405713436093826e-03
6.506666900000000169e+02 0.000000000000000000e+00
6.560000000000000000e+02 8.830275684677287365e-03
6.613333099999999831e+02 2.125707031566790792e-02
6.666666900000000169e+02 2.703807271110791888e-02
6.720000000000000000e+02 2.623500561268767017e-02
6.773333099999999831e+02 2.348100804026077848e-02
6.826666900000000169e+02 2.502485161205633690e-02
6.880000000000000000e+02 3.192576983563433918e-02
6.933333099999999831e+02 3.820680390063443260e-02
6.986666900000000169e+02 4.179122151454719297e-02
7.040000000000000000e+02 4.702094100238088381e-02
7.093333099999999831e+02 5.563678778785739742e-02
7.146666900000000169e+02 6.733963681222233932e-02
7.200000000000000000e+02 7.479637518786437511e-02
7.253333099999999831e+02 7.371695075592760160e-02
7.306666900000000169e+02 7.493293268144798902e-02
7.360000000000000000e+02 8.881377753928912377e-02
7.413333099999999831e+02 1.129550368913362357e-01
7.466666900000000169e+02 1.341610571545466812e-01
7.520000000000000000e+02 1.380328548038171621e-01
7.573333099999999831e+02 1.232181858102227856e-01
7.626666900000000169e+02 1.029986027143410532e-01
7.680000000000000000e+02 9.217604021767444866e-02
7.733333099999999831e+02 9.482736521655231454e-02
7.786666900000000169e+02 1.020494355354162469e-01
7.840000000000000000e+02 1.065498004907873553e-01
7.893333099999999831e+02 1.092752254510584164e-01
7.946666900000000169e+02 1.129997388672307479e-01
8.000000000000000000e+02 1.262162626563368695e-01
8.053333099999999831e+02 1.510631028806178056e-01
8.106666900000000169e+02 1.773582974063540041e-01
8.160000000000000000e+02 2.007388750492693774e-01
8.213333099999999831e+02 2.220810284275954449e-01
8.266666900000000169e+02 2.416563866674315553e-01
8.320000000000000000e+02 2.663605428603293968e-01
8.373333099999999831e+02 2.989746998305889414e-01
8.426666900000000169e+02 3.315795593285649767e-01
8.480000000000000000e+02 3.609630668305359724e-01
8.533333099999999831e+02 3.816866987081798390e-01
8.586666900000000169e+02 3.902933559668628760e-01
8.640000000000000000e+02 3.884964218651772994e-01
8.693333099999999831e+02 3.787074673965968863e-01
8.746666900000000169e+02 3.640934090420507308e-01
8.800000000000000000e+02 3.492755255918376101e-01
8.853333099999999831e+02 3.323680965552854305e-01
8.906666900000000169e+02 3.179550856496263789e-01
8.960000000000000000e+02 3.117102750792519195e-01
9.013333099999999831e+02 3.182808269517932165e-01
9.066666900000000169e+02 3.435712538780627545e-01
9.120000000000000000e+02 3.808110885199453288e-01
9.173333099999999831e+02 4.107588615746398664e-01
9.226666900000000169e+02 4.244395386572488160e-01
9.280000000000000000e+02 4.192161622852879632e-01
9.333333099999999831e+02 3.981794365507253519e-01
9.386666900000000169e+02 3.740061114212157589e-01
9.440000000000000000e+02 3.508500863420312976e-01
9.493333099999999831e+02 3.315436775582683571e-01
9.546666900000000169e+02 3.257861218475580634e-01
9.600000000000000000e+02 3.376174997813662371e-01
9.653333099999999831e+02 3.587063732277336325e-01
9.706666900000000169e+02 3.761132526913089080e-01
9.760000000000000000e+02 3.751823882398811483e-01
9.813333099999999831e+02 3.683141267949308073e-01
9.866666900000000169e+02 3.834948932098470875e-01
9.920000000000000000e+02 4.284960855346595099e-01
9.973333099999999831e+02 4.818518175575923213e-01
1.002666699999999992e+03 5.031308946511594549e-01
1.008000000000000000e+03 4.672811510247870670e-01
1.013333300000000008e+03 4.003282299339773753e-01
1.018666699999999992e+03 3.479864553295463625e-01
1.024000000000000000e+03 3.326265049266955987e-01
1.029333399999999983e+03 3.442240423516119141e-01
1.034666600000000017e+03 3.544546235571608417e-01
1.040000000000000000e+03 3.429519225913624791e-01
1.045333399999999983e+03 3.184810516702424876e-01
1.050666600000000017e+03 2.930598110069420614e-01
1.056000000000000000e+03 2.745490487283369641e-01
1.061333399999999983e+03 2.634377322513410391e-01
1.066666600000000017e+03 2.625990955235389390e-01
1.072000000000000000e+03 2.673958033760542863e-01
1.077333399999999983e+03 2.798840306421528368e-01
1.082666600000000017e+03 2.945961740814928009e-01
1.088000000000000000e+03 3.037317827105681101e-01
1.093333399999999983e+03 3.055393506587409935e-01
1.098666600000000017e+03 2.966031571465646000e-01
1.104000000000000000e+03 2.712059283007953736e-01
1.109333399999999983e+03 2.399703232604806225e-01
1.114666600000000017e+03 2.122154206454010539e-01
1.120000000000000000e+03 1.843379871756439525e-01
1.125333399999999983e+03 1.568214060386056152e-01
1.130666600000000017e+03 1.200916726047374095e-01
1.136000000000000000e+03 7.246327164328611459e-02
1.141333399999999983e+03 3.098045509104677825e-02
1.146666600000000017e+03 8.634047439729106155e-03
1.152000000000000000e+03 4.860091233352958895e-03
1.157333399999999983e+03 1.524213501820666748e-02
1.162666600000000017e+03 2.990165809966460753e-02
1.168000000000000000e+03 4.221343570840642434e-02
1.173333399999999983e+03 5.309076496886423052e-02
1.178666600000000017e+03 5.963702034218188591e-02
1.184000000000000000e+03 6.942068784560014028e-02
1.189333399999999983e+03 8.617153651451719965e-02
1.194666600000000017e+03 1.135356678406665015e-01
1.200000000000000000e+03 1.536275093588637952e-01
1.205333399999999983e+03 2.019588102167240717e-01
1.210666600000000017e+03 2.493576594628533205e-01
1.216000000000000000e+03 3.067503933727805943e-01
1.221333399999999983e+03 3.781334380073970158e-01
1.226666600000000017e+03 4.667566542591239376e-01
1.232000000000000000e+03 5.631661397964837779e-01
1.237333399999999983e+03 6.400844602587443255e-01
1.242666600000000017e+03 6.804694515603018079e-01
1.248000000000000000e+03 6.882334645907648429e-01
1.253333399999999983e+03 6.741507798325147016e-01
1.258666600000000017e+03 6.588364411386139485e-01
1.264000000000000000e+03 6.427056856676248708e-01
1.269333399999999983e+03 6.139404144149633868e-01
1.274666600000000017e+03 5.813493056575982365e-01
1.280000000000000000e+03 5.557268847877602225e-01
1.285333399999999983e+03 5.480374317415658281e-01
1.290666600000000017e+03 5.663624846852114425e-01
1.296000000000000000e+03 5.946455531966265973e-01
1.301333399999999983e+03 6.192316179664413278e-01
1.306666600000000017e+03 6.402926283617627057e-01
1.312000000000000000e+03 6.568810682184281768e-01
1.317333399999999983e+03 6.726168361839798271e-01
1.322666600000000017e+03 6.920275724405983153e-01
1.328000000000000000e+03 7.054945252709061698e-01
1.333333399999999983e+03 7.059614755134406838e-01
1.338666600000000017e+03 6.831465516347992040e-01
1.344000000000000000e+03 6.316316473009423449e-01
1.349333399999999983e+03 5.582045339635028913e-01
1.354666600000000017e+03 4.806016088619957105e-01
1.360000000000000000e+03 4.133372718244051613e-01
1.365333399999999983e+03 3.675729192550129532e-01
1.370666600000000017e+03 3.400862654088042114e-01
1.376000000000000000e+03 3.274255613651421704e-01
1.381333399999999983e+03 3.239078228744486365e-01
1.386666600000000017e+03 3.247811252945833060e-01
1.392000000000000000e+03 3.272625682250248080e-01
1.397333399999999983e+03 3.302702515754366575e-01
1.402666600000000017e+03 3.333114831938436273e-01
1.408000000000000000e+03 3.401138558237484788e-01
1.413333399999999983e+03 3.555935538973880039e-01
1.418666600000000017e+03 3.863256316070809993e-01
1.424000000000000000e+03 4.389331655488912243e-01
1.429333399999999983e+03 5.234358633693977358e-01
1.434666600000000017e+03 6.446789671502436425e-01
1.440000000000000000e+03 7.852762529742548514e-01
1.445333399999999983e+03 9.171724068591724510e-01
1.450666600000000017e+03 9.999999999999998890e-01
1.456000000000000000e+03 9.995233568503106847e-01
1.461333399999999983e+03 9.164674032017972038e-01
1.466666600000000017e+03 7.724220148215632520e-01
1.472000000000000000e+03 5.962043090285187308e-01
1.477333399999999983e+03 4.271642981152335428e-01
1.482666600000000017e+03 2.806340355450845370e-01
1.488000000000000000e+03 1.632707616766427006e-01
1.493333399999999983e+03 8.387061703109303934e-02
1.498666600000000017e+03 3.659661504789705339e-02
1.504000000000000000e+03 1.477023889171933183e-02
1.509333399999999983e+03 1.196804157394715240e-02
1.514666600000000017e+03 1.142925690434560236e-02
1.520000000000000000e+03 8.820831345263981799e-03
1.525333399999999983e+03 7.319809773377412496e-03
1.530666600000000017e+03 9.118615132017749217e-03
1.536000000000000000e+03 2.387354518131133349e-02
1.541333399999999983e+03 5.081122322216520548e-02
1.546666600000000017e+03 8.457101887630659454e-02
1.552000000000000000e+03 1.216032337112824407e-01
1.557333399999999983e+03 1.521857493478885881e-01
1.562666600000000017e+03 1.749296095679035157e-01
1.568000000000000000e+03 1.992556014891303795e-01
1.573333399999999983e+03 2.254833610447266601e-01
1.578666600000000017e+03 2.504673344945706481e-01
1.584000000000000000e+03 2.725946813899330912e-01
1.589333399999999983e+03 2.848046555284097781e-01
1.594666600000000017e+03 2.932671164656621143e-01
1.600000000000000000e+03 3.142322190936640003e-01
1.605333399999999983e+03 3.476727738725668426e-01
1.610666600000000017e+03 3.785708388641365052e-01
1.616000000000000000e+03 4.018578705284749919e-01
1.621333399999999983e+03 4.193150156237430148e-01
1.626666600000000017e+03 4.391058426796976000e-01
1.632000000000000000e+03 4.779317363850805189e-01
1.637333399999999983e+03 5.389004114814033297e-01
1.642666600000000017e+03 6.132815045550766841e-01
1.648000000000000000e+03 6.988009376151746999e-01
1.653333399999999983e+03 7.881363401973086047e-01
1.658666600000000017e+03 8.629064546565212712e-01
1.664000000000000000e+03 9.057327948792460726e-01
1.669333399999999983e+03 9.033369368971368996e-01
1.674666600000000017e+03 8.521514823572527986e-01
1.680000000000000000e+03 7.599091936486708221e-01
1.685333399999999983e+03 6.368932054312018698e-01
1.690666600000000017e+03 5.011041466234962272e-01
1.696000000000000000e+03 3.707129447251495402e-01
1.701333399999999983e+03 2.598514208415556581e-01
1.706666600000000017e+03 1.726964994782949347e-01
1.712000000000000000e+03 1.052591373585016338e-01
1.717333399999999983e+03 5.356672458248489671e-02
1.722666600000000017e+03 2.160970003300687406e-02
1.728000000000000000e+03 1.036825507664008300e-02
1.733333399999999983e+03 1.276137725650552425e-02
1.738666600000000017e+03 1.803910986380063974e-02
1.744000000000000000e+03 2.001204021789861759e-02
1.749333399999999983e+03 1.958836042324832438e-02
1.754666600000000017e+03 2.082774165963407337e-02
1.760000000000000000e+03 2.519882042675564843e-02
1.765333399999999983e+03 2.692598710772371728e-02
1.770666600000000017e+03 2.386059810500969214e-02
1.776000000000000000e+03 2.238960432439012632e-02
1.781333399999999983e+03 2.667089058530359297e-02
1.786666600000000017e+03 3.624344349459879266e-02
1.792000000000000000e+03 4.519562486937683810e-02
1.797333399999999983e+03 3.875882973781821783e-02
1.802666600000000017e+03 5.859061967669175301e-03
