6.080000000000000000e+02 1.639400956133832757e-02
6.133333099999999831e+02 1.933218838092589167e-02
6.186666900000000169e+02 1.777818416858265374e-02
6.240000000000000000e+02 1.336121334347455461e-02
6.293333099999999831e+02 6.563544400356514583e-03
6.346666900000000169e+02 4.078366714542651546e-03
6.400000000000000000e+02 5.365347011330066571e-03
6.453333099999999831e+02 6.589967940133955454e-03
6.506666900000000169e+02 3.627125205191487640e-03
6.560000000000000000e+02 0.000000000000000000e+00
6.613333099999999831e+02 9.129375279768132609e-04
6.666666900000000169e+02 1.156635736318971375e-02
6.720000000000000000e+02 2.147318457486813853e-02
6.773333099999999831e+02 2.051831368755388865e-02
6.826666900000000169e+02 8.344775107243641507e-03
6.880000000000000000e+02 2.066627848258993129e-03
6.933333099999999831e+02 1.293448185632672595e-02
6.986666900000000169e+02 4.219504115337203987e-02
7.040000000000000000e+02 7.756830105373289930e-02
7.093333099999999831e+02 1.059143900269972072e-01
7.146666900000000169e+02 1.202418056246559036e-01
7.200000000000000000e+02 1.232607775962437785e-01
7.253333099999999831e+02 1.154843130288547848e-01
7.306666900000000169e+02 1.075720125703249763e-01
7.360000000000000000e+02 1.106534181323842597e-01
7.413333099999999831e+02 1.224065185315289100e-01
7.466666900000000169e+02 1.356810174673478420e-01
7.520000000000000000e+02 1.426209774049135293e-01
7.573333099999999831e+02 1.404963410156981340e-01
7.626666900000000169e+02 1.364488312716955754e-01
7.680000000000000000e+02 1.328714808329563291e-01
7.733333099999999831e+02 1.277635496955093763e-01
7.786666900000000169e+02 1.142780097678365164e-01
7.840000000000000000e+02 9.497079843428847534e-02
7.893333099999999831e+02 8.367636091927201092e-02
7.946666900000000169e+02 9.085779213017763922e-02
8.000000000000000000e+02 1.077301203711802519e-01
8.053333099999999831e+02 1.403632671759114103e-01
8.106666900000000169e+02 1.775669536563570516e-01
8.160000000000000000e+02 2.196704389408556668e-01
8.213333099999999831e+02 2.576554177911755117e-01
8.266666900000000169e+02 2.846905897244618178e-01
8.320000000000000000e+02 2.889279804272152918e-01
8.373333099999999831e+02 2.858302930182671231e-01
8.426666900000000169e+02 2.873841009075355224e-01
8.480000000000000000e+02 3.062536848578950033e-01
8.533333099999999831e+02 3.223834660980728350e-01
8.586666900000000169e+02 3.279829439284991932e-01
8.640000000000000000e+02 3.161901581441374787e-01
8.693333099999999831e+02 2.982890985138660911e-01
8.746666900000000169e+02 2.923525728077576158e-01
8.800000000000000000e+02 3.030528130611267468e-01
8.853333099999999831e+02 3.140867607779246895e-01
8.906666900000000169e+02 3.193381299006725627e-01
8.960000000000000000e+02 3.133182371768571950e-01
9.013333099999999831e+02 2.981981973544274855e-01
9.066666900000000169e+02 2.909515988716407375e-01
9.120000000000000000e+02 2.961435822922888761e-01
9.173333099999999831e+02 3.093146366117158763e-01
9.226666900000000169e+02 3.255915218557360880e-01
9.280000000000000000e+02 3.354144205749560181e-01
9.333333099999999831e+02 3.347920835601125855e-01
9.386666900000000169e+02 3.352854545277679232e-01
9.440000000000000000e+02 3.396180571676979953e-01
9.493333099999999831e+02 3.458219861122489580e-01
9.546666900000000169e+02 3.486490528868857464e-01
9.600000000000000000e+02 3.404643987006635841e-01
9.653333099999999831e+02 3.262263287771797748e-01
9.706666900000000169e+02 3.139411269691889106e-01
9.760000000000000000e+02 2.970657174422492441e-01
9.813333099999999831e+02 2.872676902436077651e-01
9.866666900000000169e+02 3.033077938830010534e-01
9.920000000000000000e+02 3.566379292322625627e-01
9.973333099999999831e+02 4.390563901114658552e-01
1.002666699999999992e+03 5.100370966040667087e-01
1.008000000000000000e+03 5.145318854669889141e-01
1.013333300000000008e+03 4.611102276614421625e-01
1.018666699999999992e+03 3.930221753313711264e-01
1.024000000000000000e+03 3.561702362494434393e-01
1.029333399999999983e+03 3.691602298567674967e-01
1.034666600000000017e+03 4.112910303223525910e-01
1.040000000000000000e+03 4.397029654437978885e-01
1.045333399999999983e+03 4.373384728725439041e-01
1.050666600000000017e+03 3.998358668025097096e-01
1.056000000000000000e+03 3.396963440513222632e-01
1.061333399999999983e+03 2.816078602777091766e-01
1.066666600000000017e+03 2.479187442199630165e-01
1.072000000000000000e+03 2.411657134333206609e-01
1.077333399999999983e+03 2.522315831830182487e-01
1.082666600000000017e+03 2.656138838423281467e-01
1.088000000000000000e+03 2.728428671584868237e-01
1.093333399999999983e+03 2.692292728416320613e-01
1.098666600000000017e+03 2.488119795752241903e-01
1.104000000000000000e+03 2.206164472012444033e-01
1.109333399999999983e+03 1.887571267138006825e-01
1.114666600000000017e+03 1.618646030937339331e-01
1.120000000000000000e+03 1.467978103324447392e-01
1.125333399999999983e+03 1.331722658149794569e-01
1.130666600000000017e+03 1.003985126110384374e-01
1.136000000000000000e+03 6.316664401278267171e-02
1.141333399999999983e+03 2.424142408372617283e-02
1.146666600000000017e+03 1.084955718268719969e-04
1.152000000000000000e+03 8.117752507223796599e-03
1.157333399999999983e+03 4.455588267331349328e-02
1.162666600000000017e+03 9.116838246051515993e-02
1.168000000000000000e+03 1.332351938047379447e-01
1.173333399999999983e+03 1.461826951316576861e-01
1.178666600000000017e+03 1.299412039134282548e-01
1.184000000000000000e+03 1.044169743893492708e-01
1.189333399999999983e+03 9.624563745521001745e-02
1.194666600000000017e+03 1.268433236622715232e-01
1.200000000000000000e+03 1.850597829917670356e-01
1.205333399999999983e+03 2.450542158634104184e-01
1.210666600000000017e+03 2.944923492298006096e-01
1.216000000000000000e+03 3.327577144682176691e-01
1.221333399999999983e+03 3.818555434874899013e-01
1.226666600000000017e+03 4.605269075342691143e-01
1.232000000000000000e+03 5.497761169056919472e-01
1.237333399999999983e+03 6.253086389203934559e-01
1.242666600000000017e+03 6.734301519607022168e-01
1.248000000000000000e+03 6.835435685511190851e-01
1.253333399999999983e+03 6.715733832120536206e-01
1.258666600000000017e+03 6.596661451870421411e-01
1.264000000000000000e+03 6.435434282845439169e-01
1.269333399999999983e+03 6.239740466968314303e-01
1.274666600000000017e+03 6.056043665738823911e-01
1.280000000000000000e+03 5.858961065444653338e-01
1.285333399999999983e+03 5.748645941535429627e-01
1.290666600000000017e+03 5.798099126817747306e-01
1.296000000000000000e+03 5.907224072183431263e-01
1.301333399999999983e+03 6.027462010315005614e-01
1.306666600000000017e+03 6.145858889939632697e-01
1.312000000000000000e+03 6.253116087758339159e-01
1.317333399999999983e+03 6.348839447087787358e-01
1.322666600000000017e+03 6.380063144568626221e-01
1.328000000000000000e+03 6.352392493264296114e-01
1.333333399999999983e+03 6.281884056387909698e-01
1.338666600000000017e+03 6.082621074749339218e-01
1.344000000000000000e+03 5.726217877953960755e-01
1.349333399999999983e+03 5.164489390535240698e-01
1.354666600000000017e+03 4.423999919274878012e-01
1.360000000000000000e+03 3.709899436918525084e-01
1.365333399999999983e+03 3.186804451033528607e-01
1.370666600000000017e+03 2.850181611423065475e-01
1.376000000000000000e+03 2.682066960353697294e-01
1.381333399999999983e+03 2.615484089826793368e-01
1.386666600000000017e+03 2.641474296244815112e-01
1.392000000000000000e+03 2.768651452720496953e-01
1.397333399999999983e+03 3.016029450882004026e-01
1.402666600000000017e+03 3.363064311583571775e-01
1.408000000000000000e+03 3.672527132693916285e-01
1.413333399999999983e+03 3.843686217712659059e-01
1.418666600000000017e+03 3.970470393440284629e-01
1.424000000000000000e+03 4.144723820318018115e-01
1.429333399999999983e+03 4.616559160390085181e-01
1.434666600000000017e+03 5.661864798990308145e-01
1.440000000000000000e+03 7.080580840474861581e-01
1.445333399999999983e+03 8.524752726590359986e-01
1.450666600000000017e+03 9.665946424714723095e-01
1.456000000000000000e+03 1.000000000000000000e+00
1.461333399999999983e+03 9.387177144119193128e-01
1.466666600000000017e+03 8.124922177751411345e-01
1.472000000000000000e+03 6.449231360301664884e-01
1.477333399999999983e+03 4.752488100290636619e-01
1.482666600000000017e+03 3.374098547030385253e-01
1.488000000000000000e+03 2.294091830498175555e-01
1.493333399999999983e+03 1.462544932172088752e-01
1.498666600000000017e+03 8.466351870733614116e-02
1.504000000000000000e+03 3.862700865239537124e-02
1.509333399999999983e+03 1.101022683967603499e-02
1.514666600000000017e+03 2.566171067247718582e-03
1.520000000000000000e+03 4.259355463478039193e-03
1.525333399999999983e+03 6.246136063597413149e-03
1.530666600000000017e+03 4.278476973852277272e-03
1.536000000000000000e+03 2.566555305405334581e-03
1.541333399999999983e+03 1.072809841872980445e-02
1.546666600000000017e+03 3.176500554051443770e-02
1.552000000000000000e+03 5.656463431355764071e-02
1.557333399999999983e+03 7.750247797044822196e-02
1.562666600000000017e+03 9.678861529229794425e-02
1.568000000000000000e+03 1.177566373951903916e-01
1.573333399999999983e+03 1.422465814531245210e-01
1.578666600000000017e+03 1.720599579917767852e-01
1.584000000000000000e+03 2.045432436590709224e-01
1.589333399999999983e+03 2.412643014781149786e-01
1.594666600000000017e+03 2.839487938255869093e-01
1.600000000000000000e+03 3.273053048784462793e-01
1.605333399999999983e+03 3.573924410910693794e-01
1.610666600000000017e+03 3.716595131148864861e-01
1.616000000000000000e+03 3.741715880000957561e-01
1.621333399999999983e+03 3.770612202797549162e-01
1.626666600000000017e+03 3.913451436016965879e-01
1.632000000000000000e+03 4.224247758216128634e-01
1.637333399999999983e+03 4.744842143584655503e-01
1.642666600000000017e+03 5.439701273303784168e-01
1.648000000000000000e+03 6.267197167898531651e-01
1.653333399999999983e+03 7.214244320442517733e-01
1.658666600000000017e+03 8.131735593325108979e-01
1.664000000000000000e+03 8.829341834022339519e-01
1.669333399999999983e+03 9.160885002804344257e-01
1.674666600000000017e+03 8.891362780554851186e-01
1.680000000000000000e+03 8.065537831113737122e-01
1.685333399999999983e+03 6.903925643257596834e-01
1.690666600000000017e+03 5.578287293224443166e-01
1.696000000000000000e+03 4.300344853844526583e-01
1.701333399999999983e+03 3.159132407856709568e-01
1.706666600000000017e+03 2.118746470779604707e-01
1.712000000000000000e+03 1.287806201257350180e-01
1.717333399999999983e+03 7.400363941439012938e-02
1.722666600000000017e+03 4.473572422369754414e-02
1.728000000000000000e+03 3.553046124099545205e-02
1.733333399999999983e+03 3.261463894163420946e-02
1.738666600000000017e+03 2.559232935038236248e-02
1.744000000000000000e+03 1.626427708216808890e-02
1.749333399999999983e+03 9.852409566645011635e-03
1.754666600000000017e+03 9.777812179279652197e-03
1.760000000000000000e+03 1.400792271638629655e-02
1.765333399999999983e+03 1.872013326761702220e-02
1.770666600000000017e+03 1.989734486502214503e-02
1.776000000000000000e+03 1.806253727091964092e-02
1.781333399999999983e+03 1.432731249648823424e-02
1.786666600000000017e+03 1.017110512435118880e-02
1.792000000000000000e+03 6.014642427064500682e-03
1.797333399999999983e+03 2.828324451647010705e-03
1.802666600000000017e+03 1.312010582071734301e-03
