6.080000000000000000e+02 3.248860305407638704e-02
6.133333099999999831e+02 3.452146115610854604e-02
6.186666900000000169e+02 3.438946464600841496e-02
6.240000000000000000e+02 3.320208972450647278e-02
6.293333099999999831e+02 3.312588180468956783e-02
6.346666900000000169e+02 3.384610888706447024e-02
6.400000000000000000e+02 3.141599452614904364e-02
6.453333099999999831e+02 2.250113691555623296e-02
6.506666900000000169e+02 9.683460808442944170e-03
6.560000000000000000e+02 9.159513490513051387e-04
6.613333099999999831e+02 5.148187614007725121e-04
6.666666900000000169e+02 9.572656151630810906e-03
6.720000000000000000e+02 2.396690639977922671e-02
6.773333099999999831e+02 3.853673651063590361e-02
6.826666900000000169e+02 4.973404756324648068e-02
6.880000000000000000e+02 5.600809250988974392e-02
6.933333099999999831e+02 5.777070831697339592e-02
6.986666900000000169e+02 5.682878352205446293e-02
7.040000000000000000e+02 5.604749743073999396e-02
7.093333099999999831e+02 5.782351898558225206e-02
7.146666900000000169e+02 6.547472934627840413e-02
7.200000000000000000e+02 7.369224529181145344e-02
7.253333099999999831e+02 8.045208471046218224e-02
7.306666900000000169e+02 8.592357699818541084e-02
7.360000000000000000e+02 9.096059315661840505e-02
7.413333099999999831e+02 9.907124463299929462e-02
7.466666900000000169e+02 1.118868660930500691e-01
7.520000000000000000e+02 1.224969378298826905e-01
7.573333099999999831e+02 1.287247992873679081e-01
7.626666900000000169e+02 1.316065764827664408e-01
7.680000000000000000e+02 1.323198135541486797e-01
7.733333099999999831e+02 1.352747811228593722e-01
7.786666900000000169e+02 1.366022405959381458e-01
7.840000000000000000e+02 1.341597564074786531e-01
7.893333099999999831e+02 1.293632705514929648e-01
7.946666900000000169e+02 1.239472682160925598e-01
8.000000000000000000e+02 1.225961827611797006e-01
8.053333099999999831e+02 1.324949823204126520e-01
8.106666900000000169e+02 1.516500989404499233e-01
8.160000000000000000e+02 1.815343415823178486e-01
8.213333099999999831e+02 2.157851413120711326e-01
8.266666900000000169e+02 2.444914622654179304e-01
8.320000000000000000e+02 2.640309804956641471e-01
8.373333099999999831e+02 2.767940613875916056e-01
8.426666900000000169e+02 2.847269046838803441e-01
8.480000000000000000e+02 2.903964186949666848e-01
8.533333099999999831e+02 2.876197730576171008e-01
8.586666900000000169e+02 2.742643256358008874e-01
8.640000000000000000e+02 2.557674798889373324e-01
8.693333099999999831e+02 2.413812572299079418e-01
8.746666900000000169e+02 2.386962104105781468e-01
8.800000000000000000e+02 2.462311953391266850e-01
8.853333099999999831e+02 2.550972378700883114e-01
8.906666900000000169e+02 2.594785000726669288e-01
8.960000000000000000e+02 2.588996562540293311e-01
9.013333099999999831e+02 2.566205434196212609e-01
9.066666900000000169e+02 2.568142833487537802e-01
9.120000000000000000e+02 2.598756470343057678e-01
9.173333099999999831e+02 2.659639613246122525e-01
9.226666900000000169e+02 2.737437345620766238e-01
9.280000000000000000e+02 2.804853495395431828e-01
9.333333099999999831e+02 2.847128569022137068e-01
9.386666900000000169e+02 2.843877241960506841e-01
9.440000000000000000e+02 2.802884130126498952e-01
9.493333099999999831e+02 2.761840867984273196e-01
9.546666900000000169e+02 2.742915638599895956e-01
9.600000000000000000e+02 2.737132156286399276e-01
9.653333099999999831e+02 2.723339324848473852e-01
9.706666900000000169e+02 2.648806941472902077e-01
9.760000000000000000e+02 2.546991194278317994e-01
9.813333099999999831e+02 2.620917709059411571e-01
9.866666900000000169e+02 3.086403961778376726e-01
9.920000000000000000e+02 3.929259256918946064e-01
9.973333099999999831e+02 4.818339870347349563e-01
1.002666699999999992e+03 5.258247585098890786e-01
1.008000000000000000e+03 4.959801085186568703e-01
1.013333300000000008e+03 4.164121194071722654e-01
1.018666699999999992e+03 3.371036840920789146e-01
1.024000000000000000e+03 2.896932429328627490e-01
1.029333399999999983e+03 2.732072883706683220e-01
1.034666600000000017e+03 2.651315918413147399e-01
1.040000000000000000e+03 2.483638490260251241e-01
1.045333399999999983e+03 2.280799216577381328e-01
1.050666600000000017e+03 2.165232668974928776e-01
1.056000000000000000e+03 2.181962913499293222e-01
1.061333399999999983e+03 2.316955989694969575e-01
1.066666600000000017e+03 2.513121743258985297e-01
1.072000000000000000e+03 2.754859465869515800e-01
1.077333399999999983e+03 3.015577818848707570e-01
1.082666600000000017e+03 3.220924271113170256e-01
1.088000000000000000e+03 3.301590555354209644e-01
1.093333399999999983e+03 3.200291413259840900e-01
1.098666600000000017e+03 2.902184089269136957e-01
1.104000000000000000e+03 2.547238328018814335e-01
1.109333399999999983e+03 2.256404657172096373e-01
1.114666600000000017e+03 2.056344199454683552e-01
1.120000000000000000e+03 1.896018381219123639e-01
1.125333399999999983e+03 1.634671410068178621e-01
1.130666600000000017e+03 1.166612697849853386e-01
1.136000000000000000e+03 6.238381930061902975e-02
1.141333399999999983e+03 1.933749634490342095e-02
1.146666600000000017e+03 0.000000000000000000e+00
1.152000000000000000e+03 6.484366137584384945e-03
1.157333399999999983e+03 3.142349352399270712e-02
1.162666600000000017e+03 5.918673443411287538e-02
1.168000000000000000e+03 7.917006918514224445e-02
1.173333399999999983e+03 8.628448921093598289e-02
1.178666600000000017e+03 8.156946508216574021e-02
1.184000000000000000e+03 7.991439476944176001e-02
1.189333399999999983e+03 1.002557895970162538e-01
1.194666600000000017e+03 1.463795673776298323e-01
1.200000000000000000e+03 2.109097788865038903e-01
1.205333399999999983e+03 2.785090779744366918e-01
1.210666600000000017e+03 3.393064307078270114e-01
1.216000000000000000e+03 3.993249893373399528e-01
1.221333399999999983e+03 4.685769798335908121e-01
1.226666600000000017e+03 5.452708820552223390e-01
1.232000000000000000e+03 6.157357939760202958e-01
1.237333399999999983e+03 6.648049921692934516e-01
1.242666600000000017e+03 6.818199969159687290e-01
1.248000000000000000e+03 6.713086728271371317e-01
1.253333399999999983e+03 6.435105715391729042e-01
1.258666600000000017e+03 6.095921352308898422e-01
1.264000000000000000e+03 5.756887920111382062e-01
1.269333399999999983e+03 5.506602183336382073e-01
1.274666600000000017e+03 5.375689137034623810e-01
1.280000000000000000e+03 5.424612445058235588e-01
1.285333399999999983e+03 5.642884397691606546e-01
1.290666600000000017e+03 6.017314107705403758e-01
1.296000000000000000e+03 6.508538455307057990e-01
1.301333399999999983e+03 7.036211914095462649e-01
1.306666600000000017e+03 7.484489744441806813e-01
1.312000000000000000e+03 7.794090899983655563e-01
1.317333399999999983e+03 7.922975693326754776e-01
1.322666600000000017e+03 7.942737188700835782e-01
1.328000000000000000e+03 7.931613165260786857e-01
1.333333399999999983e+03 7.828028147024275185e-01
1.338666600000000017e+03 7.509955763342817114e-01
1.344000000000000000e+03 6.947695105286817441e-01
1.349333399999999983e+03 6.182491396993706756e-01
1.354666600000000017e+03 5.390164118296328910e-01
1.360000000000000000e+03 4.738656522015492478e-01
1.365333399999999983e+03 4.237045506987124344e-01
1.370666600000000017e+03 3.822210458754227713e-01
1.376000000000000000e+03 3.517871178326469894e-01
1.381333399999999983e+03 3.330254256759467846e-01
1.386666600000000017e+03 3.260703645296528785e-01
1.392000000000000000e+03 3.302761523461814064e-01
1.397333399999999983e+03 3.388628374706005308e-01
1.402666600000000017e+03 3.469804905258872529e-01
1.408000000000000000e+03 3.580562215052443542e-01
1.413333399999999983e+03 3.755374700844631430e-01
1.418666600000000017e+03 4.022145657039458144e-01
1.424000000000000000e+03 4.505119374827254441e-01
1.429333399999999983e+03 5.354296581343159778e-01
1.434666600000000017e+03 6.602913877122104092e-01
1.440000000000000000e+03 8.054406074305126007e-01
1.445333399999999983e+03 9.337300547657497729e-01
1.450666600000000017e+03 1.000000000000000000e+00
1.456000000000000000e+03 9.795022170193465882e-01
1.461333399999999983e+03 8.829334060381662797e-01
1.466666600000000017e+03 7.408777286167435028e-01
1.472000000000000000e+03 5.851351608981316677e-01
1.477333399999999983e+03 4.429988690607184476e-01
1.482666600000000017e+03 3.234242503453784168e-01
1.488000000000000000e+03 2.234040349342933385e-01
1.493333399999999983e+03 1.431527764051557794e-01
1.498666600000000017e+03 8.310594665940858328e-02
1.504000000000000000e+03 4.115572756120331605e-02
1.509333399999999983e+03 1.701097020754002709e-02
1.514666600000000017e+03 7.350233578531503373e-03
1.520000000000000000e+03 6.803085776207424239e-03
1.525333399999999983e+03 1.422792774282525576e-02
1.530666600000000017e+03 3.090963518322451670e-02
1.536000000000000000e+03 5.691179189243861930e-02
1.541333399999999983e+03 9.123558590429266257e-02
1.546666600000000017e+03 1.312846308306455656e-01
1.552000000000000000e+03 1.711569797127309445e-01
1.557333399999999983e+03 2.074419415985965798e-01
1.562666600000000017e+03 2.434005447448888970e-01
1.568000000000000000e+03 2.813551406504335439e-01
1.573333399999999983e+03 3.155633438944010494e-01
1.578666600000000017e+03 3.420492591371885327e-01
1.584000000000000000e+03 3.550051670384032909e-01
1.589333399999999983e+03 3.573662173548272092e-01
1.594666600000000017e+03 3.640199956474784448e-01
1.600000000000000000e+03 3.822209644471848966e-01
1.605333399999999983e+03 4.059446340873161807e-01
1.610666600000000017e+03 4.264051840143127659e-01
1.616000000000000000e+03 4.327858418085644976e-01
1.621333399999999983e+03 4.284810700925840710e-01
1.626666600000000017e+03 4.290596257604672448e-01
1.632000000000000000e+03 4.478260987223240952e-01
1.637333399999999983e+03 4.959218091229804504e-01
1.642666600000000017e+03 5.735786075410478357e-01
1.648000000000000000e+03 6.681503470297833758e-01
1.653333399999999983e+03 7.679820010833048327e-01
1.658666600000000017e+03 8.539452660411027685e-01
1.664000000000000000e+03 9.054842265074483088e-01
1.669333399999999983e+03 9.098039823322606745e-01
1.674666600000000017e+03 8.614654083367698778e-01
1.680000000000000000e+03 7.637732747738651407e-01
1.685333399999999983e+03 6.357082728444312103e-01
1.690666600000000017e+03 4.962323060799133656e-01
1.696000000000000000e+03 3.644721076648882452e-01
1.701333399999999983e+03 2.540262907411613424e-01
1.706666600000000017e+03 1.700361850440527955e-01
1.712000000000000000e+03 1.112280382092193098e-01
1.717333399999999983e+03 7.495661262526859270e-02
1.722666600000000017e+03 5.342742243170956612e-02
1.728000000000000000e+03 4.046580578278294316e-02
1.733333399999999983e+03 3.238539046600178578e-02
1.738666600000000017e+03 2.463234751196719668e-02
1.744000000000000000e+03 1.768925153366965319e-02
1.749333399999999983e+03 1.348660069361875408e-02
1.754666600000000017e+03 1.071729060760120283e-02
1.760000000000000000e+03 9.069098892308086191e-03
1.765333399999999983e+03 8.539426143180510118e-03
1.770666600000000017e+03 7.799816076609625108e-03
1.776000000000000000e+03 8.912489125931710374e-03
1.781333399999999983e+03 1.102533042771653565e-02
1.786666600000000017e+03 1.235666009207355559e-02
1.792000000000000000e+03 1.321693764633868028e-02
1.797333399999999983e+03 1.314755388561829851e-02
1.802666600000000017e+03 1.177581892462516155e-02
