6.080000000000000000e+02 2.884891931275624516e-02
6.133333099999999831e+02 3.893435224450829402e-02
6.186666900000000169e+02 4.774661116583110015e-02
6.240000000000000000e+02 5.336298740738167068e-02
6.293333099999999831e+02 5.258579659490606600e-02
6.346666900000000169e+02 4.491446381914677294e-02
6.400000000000000000e+02 3.652839764981221510e-02
6.453333099999999831e+02 2.377954836714286230e-02
6.506666900000000169e+02 1.170797581013361538e-02
6.560000000000000000e+02 4.279137936930812146e-03
6.613333099999999831e+02 4.845339787905247712e-03
6.666666900000000169e+02 1.701186059957614932e-02
6.720000000000000000e+02 3.936162464919976817e-02
6.773333099999999831e+02 6.126644226565653578e-02
6.826666900000000169e+02 7.933830525753160501e-02
6.880000000000000000e+02 9.396329238007003481e-02
6.933333099999999831e+02 1.049291778072258402e-01
6.986666900000000169e+02 1.157712935072742755e-01
7.040000000000000000e+02 1.295749540757667739e-01
7.093333099999999831e+02 1.443464708095721916e-01
7.146666900000000169e+02 1.551462553534597999e-01
7.200000000000000000e+02 1.624743523027918635e-01
7.253333099999999831e+02 1.617736207632840817e-01
7.306666900000000169e+02 1.578056842760311718e-01
7.360000000000000000e+02 1.592613718534935385e-01
7.413333099999999831e+02 1.684703748295589276e-01
7.466666900000000169e+02 1.784761674007362686e-01
7.520000000000000000e+02 1.858248811044643511e-01
7.573333099999999831e+02 1.879676026544094547e-01
7.626666900000000169e+02 1.918770603894657811e-01
7.680000000000000000e+02 2.082478703810172749e-01
7.733333099999999831e+02 2.397151879172537692e-01
7.786666900000000169e+02 2.697513835873909249e-01
7.840000000000000000e+02 2.803164948370565068e-01
7.893333099999999831e+02 2.698630943001939508e-01
7.946666900000000169e+02 2.506971506866708110e-01
8.000000000000000000e+02 2.409284039547061884e-01
8.053333099999999831e+02 2.570347683596128086e-01
8.106666900000000169e+02 2.898194183555654058e-01
8.160000000000000000e+02 3.222641725888997222e-01
8.213333099999999831e+02 3.463226627171793748e-01
8.266666900000000169e+02 3.585088145951593752e-01
8.320000000000000000e+02 3.593368355635999656e-01
8.373333099999999831e+02 3.596994045382377880e-01
8.426666900000000169e+02 3.662790200789189932e-01
8.480000000000000000e+02 3.819883803396606492e-01
8.533333099999999831e+02 4.040915787187557839e-01
8.586666900000000169e+02 4.256191136567656907e-01
8.640000000000000000e+02 4.321073392238052313e-01
8.693333099999999831e+02 4.226358980737728310e-01
8.746666900000000169e+02 4.030191515298283123e-01
8.800000000000000000e+02 3.812497660291753743e-01
8.853333099999999831e+02 3.636909558349267213e-01
8.906666900000000169e+02 3.600354783144131821e-01
8.960000000000000000e+02 3.676697073707974051e-01
9.013333099999999831e+02 3.862179629245473533e-01
9.066666900000000169e+02 4.066713191060061239e-01
9.120000000000000000e+02 4.249051963010316846e-01
9.173333099999999831e+02 4.390180259322380985e-01
9.226666900000000169e+02 4.509650437130963141e-01
9.280000000000000000e+02 4.571834966999771543e-01
9.333333099999999831e+02 4.524921517479869038e-01
9.386666900000000169e+02 4.303646406491953846e-01
9.440000000000000000e+02 3.997314032668392025e-01
9.493333099999999831e+02 3.731523835455134996e-01
9.546666900000000169e+02 3.566859817182931880e-01
9.600000000000000000e+02 3.468068638710179452e-01
9.653333099999999831e+02 3.361973024889093886e-01
9.706666900000000169e+02 3.198467235568728251e-01
9.760000000000000000e+02 3.045325611613009520e-01
9.813333099999999831e+02 3.079460047091037711e-01
9.866666900000000169e+02 3.458519124202272810e-01
9.920000000000000000e+02 4.174761891637110978e-01
9.973333099999999831e+02 5.026742939550831180e-01
1.002666699999999992e+03 5.608371381405470313e-01
1.008000000000000000e+03 5.565006860435991465e-01
1.013333300000000008e+03 4.939809940134791688e-01
1.018666699999999992e+03 4.134573826579046041e-01
1.024000000000000000e+03 3.630063915223610271e-01
1.029333399999999983e+03 3.635662512187227136e-01
1.034666600000000017e+03 3.928072754656402044e-01
1.040000000000000000e+03 4.127182396924779506e-01
1.045333399999999983e+03 3.998244724482433177e-01
1.050666600000000017e+03 3.547150362359041131e-01
1.056000000000000000e+03 3.048447978895223454e-01
1.061333399999999983e+03 2.719124421687946214e-01
1.066666600000000017e+03 2.620462260383104591e-01
1.072000000000000000e+03 2.738433764147201743e-01
1.077333399999999983e+03 2.961944664403685645e-01
1.082666600000000017e+03 3.166542059673146392e-01
1.088000000000000000e+03 3.340745604928865298e-01
1.093333399999999983e+03 3.441516001114046097e-01
1.098666600000000017e+03 3.389224394547662444e-01
1.104000000000000000e+03 3.184848293377972039e-01
1.109333399999999983e+03 2.895788577313625489e-01
1.114666600000000017e+03 2.591262516979803698e-01
1.120000000000000000e+03 2.293278680260444902e-01
1.125333399999999983e+03 1.981206920448908282e-01
1.130666600000000017e+03 1.548218179546239637e-01
1.136000000000000000e+03 9.986027382609097280e-02
1.141333399999999983e+03 4.896993857978718806e-02
1.146666600000000017e+03 1.574150120739101211e-02
1.152000000000000000e+03 4.295064984681954377e-03
1.157333399999999983e+03 1.633332767732452451e-02
1.162666600000000017e+03 4.373823167182719351e-02
1.168000000000000000e+03 7.177817276082860964e-02
1.173333399999999983e+03 9.887161282759210357e-02
1.178666600000000017e+03 1.174214997133384980e-01
1.184000000000000000e+03 1.277063422360837641e-01
1.189333399999999983e+03 1.446013461629071239e-01
1.194666600000000017e+03 1.838356877914185672e-01
1.200000000000000000e+03 2.411220884871395354e-01
1.205333399999999983e+03 3.116690222291607082e-01
1.210666600000000017e+03 3.726712918815891507e-01
1.216000000000000000e+03 4.182612410938265635e-01
1.221333399999999983e+03 4.648499771727857555e-01
1.226666600000000017e+03 5.349145853072916346e-01
1.232000000000000000e+03 6.211674363623360673e-01
1.237333399999999983e+03 7.020111599493951138e-01
1.242666600000000017e+03 7.521735736857743104e-01
1.248000000000000000e+03 7.611785386726351854e-01
1.253333399999999983e+03 7.431550742347006189e-01
1.258666600000000017e+03 7.196514047388397062e-01
1.264000000000000000e+03 6.893654379767527596e-01
1.269333399999999983e+03 6.486684260116554190e-01
1.274666600000000017e+03 6.047635607092616272e-01
1.280000000000000000e+03 5.675270747671420368e-01
1.285333399999999983e+03 5.555441961561918829e-01
1.290666600000000017e+03 5.784473639609660767e-01
1.296000000000000000e+03 6.251216850286613891e-01
1.301333399999999983e+03 6.743932996954422610e-01
1.306666600000000017e+03 7.039505791325199047e-01
1.312000000000000000e+03 7.090199950226223624e-01
1.317333399999999983e+03 7.008807230541553857e-01
1.322666600000000017e+03 6.960596115135537776e-01
1.328000000000000000e+03 7.026640762779613469e-01
1.333333399999999983e+03 7.175007624071565449e-01
1.338666600000000017e+03 7.154579747033812387e-01
1.344000000000000000e+03 6.826145447077217598e-01
1.349333399999999983e+03 6.179076560861075373e-01
1.354666600000000017e+03 5.320322188161163979e-01
1.360000000000000000e+03 4.427513055486392290e-01
1.365333399999999983e+03 3.798741270151628213e-01
1.370666600000000017e+03 3.450175048498353436e-01
1.376000000000000000e+03 3.293177323237068688e-01
1.381333399999999983e+03 3.224101174714442131e-01
1.386666600000000017e+03 3.134474501958886550e-01
1.392000000000000000e+03 3.017182873450545699e-01
1.397333399999999983e+03 3.020723305371620371e-01
1.402666600000000017e+03 3.190541898206142313e-01
1.408000000000000000e+03 3.456349804069781539e-01
1.413333399999999983e+03 3.786047538083677777e-01
1.418666600000000017e+03 4.112661158669185246e-01
1.424000000000000000e+03 4.495584561860311856e-01
1.429333399999999983e+03 5.129443352314088100e-01
1.434666600000000017e+03 6.179655689012730768e-01
1.440000000000000000e+03 7.523937162589640071e-01
1.445333399999999983e+03 8.934769418087630255e-01
1.450666600000000017e+03 9.874867064753839463e-01
1.456000000000000000e+03 1.000000000000000000e+00
1.461333399999999983e+03 9.293268977712708656e-01
1.466666600000000017e+03 8.057309948983727432e-01
1.472000000000000000e+03 6.622022501425893770e-01
1.477333399999999983e+03 5.336991395680983352e-01
1.482666600000000017e+03 4.192605869934104001e-01
1.488000000000000000e+03 3.175177889051126190e-01
1.493333399999999983e+03 2.225699988508229310e-01
1.498666600000000017e+03 1.396255997064272669e-01
1.504000000000000000e+03 7.675075392937076579e-02
1.509333399999999983e+03 3.781268012491260933e-02
1.514666600000000017e+03 1.519169153111760671e-02
1.520000000000000000e+03 6.748397155689852232e-03
1.525333399999999983e+03 5.487424876290987116e-03
1.530666600000000017e+03 7.403230475642895957e-03
1.536000000000000000e+03 1.939983509366714418e-02
1.541333399999999983e+03 3.988381294420502432e-02
1.546666600000000017e+03 6.911955786162835014e-02
1.552000000000000000e+03 1.085205995237835119e-01
1.557333399999999983e+03 1.529898596553262713e-01
1.562666600000000017e+03 1.956423692515804891e-01
1.568000000000000000e+03 2.370039803922650568e-01
1.573333399999999983e+03 2.754932437063614681e-01
1.578666600000000017e+03 3.120838544381066004e-01
1.584000000000000000e+03 3.378289208411858202e-01
1.589333399999999983e+03 3.499553533545592399e-01
1.594666600000000017e+03 3.491168862213455681e-01
1.600000000000000000e+03 3.420360146737016493e-01
1.605333399999999983e+03 3.416070729662051830e-01
1.610666600000000017e+03 3.532998680436769678e-01
1.616000000000000000e+03 3.691576548370311683e-01
1.621333399999999983e+03 3.978854892413892785e-01
1.626666600000000017e+03 4.334988065159239845e-01
1.632000000000000000e+03 4.767131872286891059e-01
1.637333399999999983e+03 5.301118609147398297e-01
1.642666600000000017e+03 5.994752276538911628e-01
1.648000000000000000e+03 6.834493768302325467e-01
1.653333399999999983e+03 7.860386869506140739e-01
1.658666600000000017e+03 8.824909690543921714e-01
1.664000000000000000e+03 9.438429806580859172e-01
1.669333399999999983e+03 9.531495421158601156e-01
1.674666600000000017e+03 9.130046940298311986e-01
1.680000000000000000e+03 8.297056331656544881e-01
1.685333399999999983e+03 7.220517598186894093e-01
1.690666600000000017e+03 5.998950110412109016e-01
1.696000000000000000e+03 4.683574498648650497e-01
1.701333399999999983e+03 3.481599654086214857e-01
1.706666600000000017e+03 2.504744578249463172e-01
1.712000000000000000e+03 1.701442002545150989e-01
1.717333399999999983e+03 1.068041501316744080e-01
1.722666600000000017e+03 6.008864857668224507e-02
1.728000000000000000e+03 2.945965795870844617e-02
1.733333399999999983e+03 1.985262224058139541e-02
1.738666600000000017e+03 2.508307199374817248e-02
1.744000000000000000e+03 2.973425383666013222e-02
1.749333399999999983e+03 2.766560980654323570e-02
1.754666600000000017e+03 2.203393868538042893e-02
1.760000000000000000e+03 1.860985712240811191e-02
1.765333399999999983e+03 2.184379699505067940e-02
1.770666600000000017e+03 2.916001320850582917e-02
1.776000000000000000e+03 3.573384404636351097e-02
1.781333399999999983e+03 3.786840670079261867e-02
1.786666600000000017e+03 3.478166206695531421e-02
1.792000000000000000e+03 2.721555273703946468e-02
1.797333399999999983e+03 1.551425496083677982e-02
1.802666600000000017e+03 0.000000000000000000e+00
