6.080000000000000000e+02 5.287908424858002443e-02
6.133333099999999831e+02 4.452601836896699639e-02
6.186666900000000169e+02 3.696296862874184908e-02
6.240000000000000000e+02 3.114627930412533149e-02
6.293333099999999831e+02 2.944007738917783085e-02
6.346666900000000169e+02 3.137145532685607641e-02
6.400000000000000000e+02 2.745633043817321053e-02
6.453333099999999831e+02 1.654544689570106725e-02
6.506666900000000169e+02 3.600554296242739274e-03
6.560000000000000000e+02 0.000000000000000000e+00
6.613333099999999831e+02 1.069337314773553295e-02
6.666666900000000169e+02 3.121168175243163936e-02
6.720000000000000000e+02 4.716507508323555808e-02
6.773333099999999831e+02 5.609994712134516726e-02
6.826666900000000169e+02 5.731382456257883007e-02
6.880000000000000000e+02 6.010445288446457368e-02
6.933333099999999831e+02 6.899270476203660241e-02
6.986666900000000169e+02 8.150174110428336227e-02
7.040000000000000000e+02 9.253968683967961351e-02
7.093333099999999831e+02 1.049295729626210372e-01
7.146666900000000169e+02 1.153282119205624734e-01
7.200000000000000000e+02 1.203751108703345618e-01
7.253333099999999831e+02 1.181338439085400371e-01
7.306666900000000169e+02 1.138173939007293828e-01
7.360000000000000000e+02 1.164804575088726202e-01
7.413333099999999831e+02 1.321686206669250574e-01
7.466666900000000169e+02 1.564568758867576070e-01
7.520000000000000000e+02 1.721863157110141984e-01
7.573333099999999831e+02 1.732182214728243963e-01
7.626666900000000169e+02 1.667481991355315163e-01
7.680000000000000000e+02 1.660513532810012349e-01
7.733333099999999831e+02 1.730796498831239372e-01
7.786666900000000169e+02 1.842976005945314300e-01
7.840000000000000000e+02 1.886541626634067603e-01
7.893333099999999831e+02 1.856433355252447848e-01
7.946666900000000169e+02 1.864440202716246830e-01
8.000000000000000000e+02 2.020513492664071098e-01
8.053333099999999831e+02 2.318950391402597178e-01
8.106666900000000169e+02 2.706440131284421624e-01
8.160000000000000000e+02 3.044971636525230507e-01
8.213333099999999831e+02 3.244538822659132071e-01
8.266666900000000169e+02 3.300732710592399477e-01
8.320000000000000000e+02 3.308238717851824107e-01
8.373333099999999831e+02 3.378461918446464263e-01
8.426666900000000169e+02 3.584362265311335505e-01
8.480000000000000000e+02 3.835330130893045419e-01
8.533333099999999831e+02 4.013170089863992707e-01
8.586666900000000169e+02 4.038510576820614761e-01
8.640000000000000000e+02 3.983531489785597790e-01
8.693333099999999831e+02 3.879728243740870886e-01
8.746666900000000169e+02 3.763052869050004245e-01
8.800000000000000000e+02 3.632958173961895465e-01
8.853333099999999831e+02 3.487981020631615303e-01
8.906666900000000169e+02 3.390799265473414259e-01
8.960000000000000000e+02 3.437701010592768003e-01
9.013333099999999831e+02 3.575810465438841179e-01
9.066666900000000169e+02 3.746054211284126079e-01
9.120000000000000000e+02 3.909016999726440122e-01
9.173333099999999831e+02 4.023284857210190357e-01
9.226666900000000169e+02 4.026077474050679950e-01
9.280000000000000000e+02 3.911266257807172186e-01
9.333333099999999831e+02 3.707775663782746367e-01
9.386666900000000169e+02 3.465635419109480142e-01
9.440000000000000000e+02 3.247532050421708671e-01
9.493333099999999831e+02 3.137146212315691240e-01
9.546666900000000169e+02 3.083316525455550017e-01
9.600000000000000000e+02 3.063020366593071642e-01
9.653333099999999831e+02 3.068852624033951426e-01
9.706666900000000169e+02 3.058346855274353682e-01
9.760000000000000000e+02 3.037258588772921986e-01
9.813333099999999831e+02 3.216259144830462824e-01
9.866666900000000169e+02 3.737797824780673683e-01
9.920000000000000000e+02 4.528839455671069270e-01
9.973333099999999831e+02 5.286717199286257163e-01
1.002666699999999992e+03 5.612942575183464955e-01
1.008000000000000000e+03 5.295627141438256080e-01
1.013333300000000008e+03 4.649407214514226228e-01
1.018666699999999992e+03 4.137893379399469329e-01
1.024000000000000000e+03 3.978815717758066861e-01
1.029333399999999983e+03 4.112952714130297394e-01
1.034666600000000017e+03 4.288226726052572491e-01
1.040000000000000000e+03 4.240329354559266850e-01
1.045333399999999983e+03 3.987586408799367876e-01
1.050666600000000017e+03 3.670904053944268330e-01
1.056000000000000000e+03 3.373878840398946699e-01
1.061333399999999983e+03 3.166491333942877406e-01
1.066666600000000017e+03 3.125452758584228996e-01
1.072000000000000000e+03 3.227861487001575935e-01
1.077333399999999983e+03 3.421030435831352023e-01
1.082666600000000017e+03 3.628317009270413118e-01
1.088000000000000000e+03 3.719474104758672683e-01
1.093333399999999983e+03 3.579033677198408814e-01
1.098666600000000017e+03 3.267246970772885728e-01
1.104000000000000000e+03 2.912979260764159140e-01
1.109333399999999983e+03 2.564721068777610080e-01
1.114666600000000017e+03 2.233363035844579680e-01
1.120000000000000000e+03 1.898035683444531108e-01
1.125333399999999983e+03 1.446477299447716247e-01
1.130666600000000017e+03 8.992092883916695534e-02
1.136000000000000000e+03 4.258534973529430612e-02
1.141333399999999983e+03 1.291276837252480422e-02
1.146666600000000017e+03 8.176706144618314451e-03
1.152000000000000000e+03 3.202129252751077793e-02
1.157333399999999983e+03 7.182568038150556611e-02
1.162666600000000017e+03 1.084692224615733391e-01
1.168000000000000000e+03 1.309364663625792458e-01
1.173333399999999983e+03 1.382878372874760953e-01
1.178666600000000017e+03 1.338597814940237773e-01
1.184000000000000000e+03 1.361277009093953272e-01
1.189333399999999983e+03 1.612127968498705544e-01
1.194666600000000017e+03 2.089801779091476908e-01
1.200000000000000000e+03 2.706383788728547457e-01
1.205333399999999983e+03 3.376323998535484816e-01
1.210666600000000017e+03 3.942978520357197092e-01
1.216000000000000000e+03 4.492724102871962777e-01
1.221333399999999983e+03 5.200420121710397359e-01
1.226666600000000017e+03 6.085097665125036581e-01
1.232000000000000000e+03 7.031872853010950886e-01
1.237333399999999983e+03 7.772152608311246880e-01
1.242666600000000017e+03 8.067410098807274998e-01
1.248000000000000000e+03 7.927029457227309228e-01
1.253333399999999983e+03 7.575943303503299697e-01
1.258666600000000017e+03 7.194298658544718839e-01
1.264000000000000000e+03 6.902257009230241547e-01
1.269333399999999983e+03 6.632975319305053352e-01
1.274666600000000017e+03 6.391791815765572871e-01
1.280000000000000000e+03 6.194127824786259673e-01
1.285333399999999983e+03 6.144892927858344178e-01
1.290666600000000017e+03 6.281057707533763690e-01
1.296000000000000000e+03 6.576999503555122084e-01
1.301333399999999983e+03 6.903572871291253632e-01
1.306666600000000017e+03 7.201800661003557869e-01
1.312000000000000000e+03 7.454457070971790555e-01
1.317333399999999983e+03 7.656989349272947942e-01
1.322666600000000017e+03 7.794844302262533553e-01
1.328000000000000000e+03 7.860836100439939633e-01
1.333333399999999983e+03 7.655833241915528387e-01
1.338666600000000017e+03 7.117792762677703777e-01
1.344000000000000000e+03 6.338866591003801121e-01
1.349333399999999983e+03 5.439335263739203397e-01
1.354666600000000017e+03 4.614874716127738141e-01
1.360000000000000000e+03 4.084749047491718632e-01
1.365333399999999983e+03 3.684995542463390672e-01
1.370666600000000017e+03 3.345015787840883714e-01
1.376000000000000000e+03 3.023630609001647374e-01
1.381333399999999983e+03 2.723868306998539213e-01
1.386666600000000017e+03 2.524841889250103999e-01
1.392000000000000000e+03 2.543229665770151970e-01
1.397333399999999983e+03 2.717815746338001492e-01
1.402666600000000017e+03 2.997152899250142277e-01
1.408000000000000000e+03 3.317835540148670326e-01
1.413333399999999983e+03 3.657785590360720374e-01
1.418666600000000017e+03 4.073064998587470065e-01
1.424000000000000000e+03 4.698722702203402823e-01
1.429333399999999983e+03 5.685731419803062847e-01
1.434666600000000017e+03 7.000893602058189114e-01
1.440000000000000000e+03 8.389876116502763548e-01
1.445333399999999983e+03 9.479740918286114759e-01
1.450666600000000017e+03 9.957836305340347360e-01
1.456000000000000000e+03 9.682839371386838812e-01
1.461333399999999983e+03 8.809798887850971427e-01
1.466666600000000017e+03 7.587513228421626232e-01
1.472000000000000000e+03 6.197346301301632776e-01
1.477333399999999983e+03 4.805290040512396610e-01
1.482666600000000017e+03 3.533040848177647075e-01
1.488000000000000000e+03 2.437783452235655623e-01
1.493333399999999983e+03 1.580718822181710059e-01
1.498666600000000017e+03 9.840156780832630401e-02
1.504000000000000000e+03 5.865537320491004403e-02
1.509333399999999983e+03 3.196528378656943864e-02
1.514666600000000017e+03 1.461982252649878314e-02
1.520000000000000000e+03 8.064500638304099300e-03
1.525333399999999983e+03 1.048205462376967066e-02
1.530666600000000017e+03 2.319344297850787703e-02
1.536000000000000000e+03 4.544385821368494838e-02
1.541333399999999983e+03 7.125776612926640330e-02
1.546666600000000017e+03 9.574926355988139237e-02
1.552000000000000000e+03 1.190739401754103421e-01
1.557333399999999983e+03 1.419471664392294719e-01
1.562666600000000017e+03 1.733571661781314610e-01
1.568000000000000000e+03 2.132647536651219311e-01
1.573333399999999983e+03 2.511273046956531418e-01
1.578666600000000017e+03 2.731429371788018368e-01
1.584000000000000000e+03 2.781991946353921663e-01
1.589333399999999983e+03 2.767405292136052575e-01
1.594666600000000017e+03 2.881461248500002403e-01
1.600000000000000000e+03 3.167280683308715261e-01
1.605333399999999983e+03 3.546400234165189569e-01
1.610666600000000017e+03 3.851896168001840981e-01
1.616000000000000000e+03 4.067760395641871196e-01
1.621333399999999983e+03 4.205258049475715798e-01
1.626666600000000017e+03 4.407822353086478517e-01
1.632000000000000000e+03 4.804438744282297225e-01
1.637333399999999983e+03 5.484466892189970855e-01
1.642666600000000017e+03 6.392020025269421479e-01
1.648000000000000000e+03 7.481167953188021524e-01
1.653333399999999983e+03 8.533807734065047557e-01
1.658666600000000017e+03 9.393134882002567299e-01
1.664000000000000000e+03 9.920764218030359016e-01
1.669333399999999983e+03 1.000000000000000000e+00
1.674666600000000017e+03 9.560982596929156196e-01
1.680000000000000000e+03 8.696823030523967990e-01
1.685333399999999983e+03 7.493483384725460050e-01
1.690666600000000017e+03 6.096323094257908304e-01
1.696000000000000000e+03 4.674898881128526917e-01
1.701333399999999983e+03 3.339382726586436756e-01
1.706666600000000017e+03 2.227720082732551898e-01
1.712000000000000000e+03 1.490756952538324354e-01
1.717333399999999983e+03 1.092279355979176719e-01
1.722666600000000017e+03 9.098353785491988810e-02
1.728000000000000000e+03 8.332820093527446015e-02
1.733333399999999983e+03 7.278669181236409325e-02
1.738666600000000017e+03 6.010438360124266410e-02
1.744000000000000000e+03 5.441756870053586492e-02
1.749333399999999983e+03 5.171486658190455055e-02
1.754666600000000017e+03 4.809686145321558082e-02
1.760000000000000000e+03 4.514648211917829390e-02
1.765333399999999983e+03 4.097415925580139007e-02
1.770666600000000017e+03 3.918754189339334476e-02
1.776000000000000000e+03 4.391955981217533778e-02
1.781333399999999983e+03 4.816738862821624834e-02
1.786666600000000017e+03 4.627822431419530147e-02
1.792000000000000000e+03 3.887696834688957742e-02
1.797333399999999983e+03 2.645381466962632919e-02
1.802666600000000017e+03 9.012560782766156769e-03
