6.080000000000000000e+02 9.430577744879031776e-02
6.133333099999999831e+02 6.168450435388199427e-02
6.186666900000000169e+02 6.054808138584642785e-02
6.240000000000000000e+02 7.939422987031187484e-02
6.293333099999999831e+02 1.103730608532126761e-01
6.346666900000000169e+02 1.271113606005394303e-01
6.400000000000000000e+02 1.240837407354781624e-01
6.453333099999999831e+02 9.727063915523288806e-02
6.506666900000000169e+02 4.894728564602057741e-02
6.560000000000000000e+02 7.997229835902027947e-03
6.613333099999999831e+02 0.000000000000000000e+00
6.666666900000000169e+02 1.218512802924249724e-02
6.720000000000000000e+02 5.010944204797149193e-02
6.773333099999999831e+02 9.180178714524042660e-02
6.826666900000000169e+02 1.204512156218460750e-01
6.880000000000000000e+02 1.240854420087943721e-01
6.933333099999999831e+02 1.161483453882081879e-01
6.986666900000000169e+02 1.016328596770916665e-01
7.040000000000000000e+02 9.630055408542388673e-02
7.093333099999999831e+02 1.010144851822718098e-01
7.146666900000000169e+02 1.140691148577436115e-01
7.200000000000000000e+02 1.085149848700033837e-01
7.253333099999999831e+02 1.008539814604296203e-01
7.306666900000000169e+02 9.794965238737117497e-02
7.360000000000000000e+02 1.093972195398568437e-01
7.413333099999999831e+02 1.387357727395541196e-01
7.466666900000000169e+02 1.735239421014476702e-01
7.520000000000000000e+02 1.921423155517671677e-01
7.573333099999999831e+02 2.018193408373228914e-01
7.626666900000000169e+02 2.052969439048590305e-01
7.680000000000000000e+02 2.152326217735571479e-01
7.733333099999999831e+02 2.399677052290795087e-01
7.786666900000000169e+02 2.646917441127253912e-01
7.840000000000000000e+02 2.659748259655612124e-01
7.893333099999999831e+02 2.488128368784052469e-01
7.946666900000000169e+02 2.254848337754725707e-01
8.000000000000000000e+02 2.118056436683200261e-01
8.053333099999999831e+02 2.290207265028602057e-01
8.106666900000000169e+02 2.680020735990275571e-01
8.160000000000000000e+02 2.921996375398723256e-01
8.213333099999999831e+02 3.083412635273294344e-01
8.266666900000000169e+02 3.103698558314658684e-01
8.320000000000000000e+02 2.928639228099825242e-01
8.373333099999999831e+02 2.799498345436864377e-01
8.426666900000000169e+02 2.760062739968513479e-01
8.480000000000000000e+02 2.681877075026458668e-01
8.533333099999999831e+02 2.745567188932221958e-01
8.586666900000000169e+02 2.812982223056407771e-01
8.640000000000000000e+02 2.785198655714833937e-01
8.693333099999999831e+02 2.776291510587213796e-01
8.746666900000000169e+02 2.754340206694522175e-01
8.800000000000000000e+02 2.651142537283885381e-01
8.853333099999999831e+02 2.498975442423959636e-01
8.906666900000000169e+02 2.313471386065162338e-01
8.960000000000000000e+02 2.219285526494784444e-01
9.013333099999999831e+02 2.244554765101882676e-01
9.066666900000000169e+02 2.360198772990149130e-01
9.120000000000000000e+02 2.490100433124023682e-01
9.173333099999999831e+02 2.524261465813948946e-01
9.226666900000000169e+02 2.560092350024660290e-01
9.280000000000000000e+02 2.606417112719409679e-01
9.333333099999999831e+02 2.590951886811376781e-01
9.386666900000000169e+02 2.491266850708090119e-01
9.440000000000000000e+02 2.275525434090800159e-01
9.493333099999999831e+02 1.918383018343000901e-01
9.546666900000000169e+02 1.499078149715180885e-01
9.600000000000000000e+02 9.991422080175796361e-02
9.653333099999999831e+02 5.842811097148108146e-02
9.706666900000000169e+02 2.528823857854299584e-02
9.760000000000000000e+02 8.890294225846327725e-03
9.813333099999999831e+02 1.335646253055510629e-02
9.866666900000000169e+02 3.504082856175304295e-02
9.920000000000000000e+02 7.278414341382571928e-02
9.973333099999999831e+02 1.282397104681036459e-01
1.002666699999999992e+03 1.703679386126771000e-01
1.008000000000000000e+03 1.897490855464632475e-01
1.013333300000000008e+03 1.823395196870803703e-01
1.018666699999999992e+03 1.559676171557511648e-01
1.024000000000000000e+03 1.350282574973023786e-01
1.029333399999999983e+03 1.286964557792516228e-01
1.034666600000000017e+03 1.338113750913046129e-01
1.040000000000000000e+03 1.504277314914142794e-01
1.045333399999999983e+03 1.806423245207424422e-01
1.050666600000000017e+03 2.131300414468743631e-01
1.056000000000000000e+03 2.338973405258014948e-01
1.061333399999999983e+03 2.249592288542568985e-01
1.066666600000000017e+03 1.969610219923935424e-01
1.072000000000000000e+03 1.718625335172973001e-01
1.077333399999999983e+03 1.814451504706375840e-01
1.082666600000000017e+03 2.208043811857584304e-01
1.088000000000000000e+03 2.742073403037902368e-01
1.093333399999999983e+03 3.121123675754661764e-01
1.098666600000000017e+03 3.336897195624530799e-01
1.104000000000000000e+03 3.261533470284438407e-01
1.109333399999999983e+03 2.892854422561387251e-01
1.114666600000000017e+03 2.284400449469601302e-01
1.120000000000000000e+03 1.675920551820034854e-01
1.125333399999999983e+03 1.126750432783835409e-01
1.130666600000000017e+03 8.868039687456996667e-02
1.136000000000000000e+03 7.490209994203944621e-02
1.141333399999999983e+03 6.033909982803216387e-02
1.146666600000000017e+03 4.610350372129960739e-02
1.152000000000000000e+03 3.667634402183371500e-02
1.157333399999999983e+03 2.338201017983377455e-02
1.162666600000000017e+03 2.026604488850883290e-02
1.168000000000000000e+03 2.483966785033308450e-02
1.173333399999999983e+03 3.102218003911711569e-02
1.178666600000000017e+03 4.103780462185442623e-02
1.184000000000000000e+03 4.009683747546616966e-02
1.189333399999999983e+03 2.044980159897691677e-02
1.194666600000000017e+03 1.078894374116623825e-02
1.200000000000000000e+03 3.239823496997991381e-02
1.205333399999999983e+03 7.957559500890051818e-02
1.210666600000000017e+03 1.596632107189511762e-01
1.216000000000000000e+03 2.469056090462151964e-01
1.221333399999999983e+03 3.307986110380232159e-01
1.226666600000000017e+03 4.177219811413072637e-01
1.232000000000000000e+03 5.052561718545092173e-01
1.237333399999999983e+03 5.820487636142797072e-01
1.242666600000000017e+03 6.355817984816634070e-01
1.248000000000000000e+03 6.582536904237034081e-01
1.253333399999999983e+03 6.613716964856714009e-01
1.258666600000000017e+03 6.556988962331085080e-01
1.264000000000000000e+03 6.568391308034515763e-01
1.269333399999999983e+03 6.733712070342525724e-01
1.274666600000000017e+03 6.832734035192429278e-01
1.280000000000000000e+03 6.907035128949514657e-01
1.285333399999999983e+03 6.958375646843640849e-01
1.290666600000000017e+03 6.976810713211989423e-01
1.296000000000000000e+03 6.955538642254314174e-01
1.301333399999999983e+03 7.015007156386789955e-01
1.306666600000000017e+03 7.142531407959812340e-01
1.312000000000000000e+03 7.453638602809672387e-01
1.317333399999999983e+03 7.895901457426175440e-01
1.322666600000000017e+03 8.259384415906637633e-01
1.328000000000000000e+03 8.424163710827816676e-01
1.333333399999999983e+03 8.241501127957193695e-01
1.338666600000000017e+03 7.706857435556568880e-01
1.344000000000000000e+03 7.088967254353704117e-01
1.349333399999999983e+03 6.460376619444827551e-01
1.354666600000000017e+03 5.842162680911423545e-01
1.360000000000000000e+03 5.530336075408975871e-01
1.365333399999999983e+03 5.310102230993328787e-01
1.370666600000000017e+03 5.113472145244245537e-01
1.376000000000000000e+03 5.021686738338768663e-01
1.381333399999999983e+03 4.872118103832067670e-01
1.386666600000000017e+03 4.639420802607219230e-01
1.392000000000000000e+03 4.482759411812280437e-01
1.397333399999999983e+03 4.376856917921833623e-01
1.402666600000000017e+03 4.301584318643570937e-01
1.408000000000000000e+03 4.248338415564001380e-01
1.413333399999999983e+03 4.194852558654458830e-01
1.418666600000000017e+03 4.117287522645659004e-01
1.424000000000000000e+03 4.061512147737897926e-01
1.429333399999999983e+03 4.259485371477214621e-01
1.434666600000000017e+03 4.940439695090232397e-01
1.440000000000000000e+03 6.065204066184630705e-01
1.445333399999999983e+03 7.576926458544366305e-01
1.450666600000000017e+03 9.030516207762753211e-01
1.456000000000000000e+03 9.911955912698319215e-01
1.461333399999999983e+03 1.000000000000000000e+00
1.466666600000000017e+03 9.430429021712019022e-01
1.472000000000000000e+03 8.168008174457898063e-01
1.477333399999999983e+03 6.598584733538471747e-01
1.482666600000000017e+03 5.003335331761613602e-01
1.488000000000000000e+03 3.599272341118545659e-01
1.493333399999999983e+03 2.573675810214409165e-01
1.498666600000000017e+03 1.947937521815934492e-01
1.504000000000000000e+03 1.429711647287636722e-01
1.509333399999999983e+03 9.852170958019630664e-02
1.514666600000000017e+03 6.118859484645168545e-02
1.520000000000000000e+03 3.310883670869839424e-02
1.525333399999999983e+03 1.744578410530512116e-02
1.530666600000000017e+03 1.006222624370587022e-02
1.536000000000000000e+03 1.268260693873777926e-02
1.541333399999999983e+03 4.053219993704215707e-02
1.546666600000000017e+03 8.801397932257068457e-02
1.552000000000000000e+03 1.424664972038700295e-01
1.557333399999999983e+03 1.978665803958661040e-01
1.562666600000000017e+03 2.438033451208403701e-01
1.568000000000000000e+03 2.879432665384061285e-01
1.573333399999999983e+03 3.338002664892990023e-01
1.578666600000000017e+03 3.719898335841696491e-01
1.584000000000000000e+03 3.945160244309361963e-01
1.589333399999999983e+03 4.048017636749125514e-01
1.594666600000000017e+03 4.053663771276483363e-01
1.600000000000000000e+03 4.108739440363811668e-01
1.605333399999999983e+03 4.213404752570658052e-01
1.610666600000000017e+03 4.462565755463305806e-01
1.616000000000000000e+03 4.768561645805415306e-01
1.621333399999999983e+03 5.036031641974597628e-01
1.626666600000000017e+03 5.323096423639046559e-01
1.632000000000000000e+03 5.545093487705443636e-01
1.637333399999999983e+03 5.681635751577034377e-01
1.642666600000000017e+03 5.894313850843543312e-01
1.648000000000000000e+03 6.230506268785928059e-01
1.653333399999999983e+03 6.804906397113881233e-01
1.658666600000000017e+03 7.656789008646527339e-01
1.664000000000000000e+03 8.473603650654203401e-01
1.669333399999999983e+03 9.048217971022688433e-01
1.674666600000000017e+03 9.183162341777882931e-01
1.680000000000000000e+03 8.828060101572058338e-01
1.685333399999999983e+03 8.048749916556956485e-01
1.690666600000000017e+03 6.850200830474127978e-01
1.696000000000000000e+03 5.489902664918254738e-01
1.701333399999999983e+03 4.296842452872127183e-01
1.706666600000000017e+03 3.344914228751678653e-01
1.712000000000000000e+03 2.682608509891845627e-01
1.717333399999999983e+03 2.113332645280137367e-01
1.722666600000000017e+03 1.406895380507455773e-01
1.728000000000000000e+03 7.447318401644899277e-02
1.733333399999999983e+03 2.919050946947462227e-02
1.738666600000000017e+03 1.024099895841022560e-02
1.744000000000000000e+03 2.275659970600667215e-02
1.749333399999999983e+03 4.468157804397933364e-02
1.754666600000000017e+03 5.164757409593570547e-02
1.760000000000000000e+03 4.170683731520115345e-02
1.765333399999999983e+03 1.968623219769531640e-02
1.770666600000000017e+03 1.606170561180661482e-03
1.776000000000000000e+03 4.605359624738880261e-03
1.781333399999999983e+03 2.158294230991038981e-02
1.786666600000000017e+03 4.129994768309944164e-02
1.792000000000000000e+03 6.069508969263147369e-02
1.797333399999999983e+03 7.909918606114169082e-02
1.802666600000000017e+03 9.473644876300629791e-02
