6.080000000000000000e+02 3.870708051524066051e-02
6.133333099999999831e+02 2.017752967623899843e-02
6.186666900000000169e+02 1.035097596713874593e-02
6.240000000000000000e+02 7.836284927438590120e-03
6.293333099999999831e+02 1.361043645672942691e-02
6.346666900000000169e+02 1.848346656136568705e-02
6.400000000000000000e+02 2.207194410071220553e-02
6.453333099999999831e+02 1.739516134289932278e-02
6.506666900000000169e+02 6.694765810791916336e-03
6.560000000000000000e+02 0.000000000000000000e+00
6.613333099999999831e+02 5.155953665296588231e-03
6.666666900000000169e+02 1.819356060094118668e-02
6.720000000000000000e+02 4.121141779164818469e-02
6.773333099999999831e+02 6.004304571416483466e-02
6.826666900000000169e+02 7.719304726480995249e-02
6.880000000000000000e+02 9.430694836365074996e-02
6.933333099999999831e+02 1.089445055682814745e-01
6.986666900000000169e+02 1.140565026146276861e-01
7.040000000000000000e+02 1.054071782847048611e-01
7.093333099999999831e+02 8.146434044297919119e-02
7.146666900000000169e+02 5.774775413792832685e-02
7.200000000000000000e+02 4.858719861896534931e-02
7.253333099999999831e+02 5.777882586447510849e-02
7.306666900000000169e+02 7.463885615732561429e-02
7.360000000000000000e+02 8.999840803794995070e-02
7.413333099999999831e+02 9.966621964119187771e-02
7.466666900000000169e+02 1.009829360124241265e-01
7.520000000000000000e+02 9.533968028957205687e-02
7.573333099999999831e+02 8.831890677715037441e-02
7.626666900000000169e+02 8.064668077112116529e-02
7.680000000000000000e+02 8.336987151748311009e-02
7.733333099999999831e+02 1.003329502812328189e-01
7.786666900000000169e+02 1.227950186877743433e-01
7.840000000000000000e+02 1.329979634622751594e-01
7.893333099999999831e+02 1.278994565404731609e-01
7.946666900000000169e+02 1.138219840368503294e-01
8.000000000000000000e+02 1.039792643743316786e-01
8.053333099999999831e+02 1.081294954607242426e-01
8.106666900000000169e+02 1.353036454349228479e-01
8.160000000000000000e+02 1.762968424547322888e-01
8.213333099999999831e+02 2.240974233897528312e-01
8.266666900000000169e+02 2.675645021633523135e-01
8.320000000000000000e+02 2.960159913113696861e-01
8.373333099999999831e+02 3.040231011556119856e-01
8.426666900000000169e+02 2.993140440435244631e-01
8.480000000000000000e+02 2.889307601481901910e-01
8.533333099999999831e+02 2.809112985283316322e-01
8.586666900000000169e+02 2.797558656070034955e-01
8.640000000000000000e+02 2.876903961871757898e-01
8.693333099999999831e+02 2.981089038526143487e-01
8.746666900000000169e+02 3.001936240019192348e-01
8.800000000000000000e+02 2.953829765091493531e-01
8.853333099999999831e+02 2.880725838036408692e-01
8.906666900000000169e+02 2.853685007007877861e-01
8.960000000000000000e+02 2.906982149503285484e-01
9.013333099999999831e+02 3.025079544801067000e-01
9.066666900000000169e+02 3.081170005017098701e-01
9.120000000000000000e+02 3.101442168730751958e-01
9.173333099999999831e+02 3.081404452661234972e-01
9.226666900000000169e+02 3.052896848222370063e-01
9.280000000000000000e+02 2.986469547302637584e-01
9.333333099999999831e+02 2.879696589455152389e-01
9.386666900000000169e+02 2.707653781403310811e-01
9.440000000000000000e+02 2.527304476724771543e-01
9.493333099999999831e+02 2.422070667153492785e-01
9.546666900000000169e+02 2.510300502466300543e-01
9.600000000000000000e+02 2.694477910814560562e-01
9.653333099999999831e+02 2.901519275572649326e-01
9.706666900000000169e+02 3.006497476916731304e-01
9.760000000000000000e+02 2.919283595317513913e-01
9.813333099999999831e+02 2.792491930096918651e-01
9.866666900000000169e+02 2.863965984348905147e-01
9.920000000000000000e+02 3.157775574338831936e-01
9.973333099999999831e+02 3.665053596621029586e-01
1.002666699999999992e+03 4.098082600583797808e-01
1.008000000000000000e+03 4.148499597152923157e-01
1.013333300000000008e+03 3.848245236395355651e-01
1.018666699999999992e+03 3.438576848044516687e-01
1.024000000000000000e+03 3.074958385464028332e-01
1.029333399999999983e+03 2.892382710703872983e-01
1.034666600000000017e+03 2.815354927554875597e-01
1.040000000000000000e+03 2.700986006724470645e-01
1.045333399999999983e+03 2.561914030581168844e-01
1.050666600000000017e+03 2.453474179313114567e-01
1.056000000000000000e+03 2.338980762076141584e-01
1.061333399999999983e+03 2.216438968076563654e-01
1.066666600000000017e+03 2.115196398866710792e-01
1.072000000000000000e+03 2.079233336557138601e-01
1.077333399999999983e+03 2.181535872231421536e-01
1.082666600000000017e+03 2.418319065972955040e-01
1.088000000000000000e+03 2.651231603100678291e-01
1.093333399999999983e+03 2.744993520423057998e-01
1.098666600000000017e+03 2.614798069438020178e-01
1.104000000000000000e+03 2.320111582754179891e-01
1.109333399999999983e+03 1.983938348898779958e-01
1.114666600000000017e+03 1.716376592326353534e-01
1.120000000000000000e+03 1.485823294479361178e-01
1.125333399999999983e+03 1.249338533969938936e-01
1.130666600000000017e+03 9.306110586265603501e-02
1.136000000000000000e+03 5.961940068750215538e-02
1.141333399999999983e+03 3.014807443982614465e-02
1.146666600000000017e+03 1.086041846420349177e-02
1.152000000000000000e+03 4.701490258896929945e-03
1.157333399999999983e+03 1.215190637909307515e-02
1.162666600000000017e+03 3.097491775498049243e-02
1.168000000000000000e+03 5.395890941189650236e-02
1.173333399999999983e+03 6.455942169767811545e-02
1.178666600000000017e+03 5.809340986730071599e-02
1.184000000000000000e+03 4.684091297365115120e-02
1.189333399999999983e+03 4.525117893952682047e-02
1.194666600000000017e+03 7.071155908135086376e-02
1.200000000000000000e+03 1.202400916573563017e-01
1.205333399999999983e+03 1.765439331850179316e-01
1.210666600000000017e+03 2.317640040273392099e-01
1.216000000000000000e+03 2.915828333762296443e-01
1.221333399999999983e+03 3.590276700053289805e-01
1.226666600000000017e+03 4.368908499271230150e-01
1.232000000000000000e+03 5.179588444105206468e-01
1.237333399999999983e+03 5.865285753370982347e-01
1.242666600000000017e+03 6.318457452381446293e-01
1.248000000000000000e+03 6.561555918647773433e-01
1.253333399999999983e+03 6.599630246457596217e-01
1.258666600000000017e+03 6.436172575307720356e-01
1.264000000000000000e+03 6.159541725136046253e-01
1.269333399999999983e+03 5.840565487512564546e-01
1.274666600000000017e+03 5.488706973127192024e-01
1.280000000000000000e+03 5.192955883672270012e-01
1.285333399999999983e+03 4.977578634403322932e-01
1.290666600000000017e+03 4.871439212528526630e-01
1.296000000000000000e+03 4.970912961452437773e-01
1.301333399999999983e+03 5.313391062846127832e-01
1.306666600000000017e+03 5.766651723561697640e-01
1.312000000000000000e+03 6.152750951829415449e-01
1.317333399999999983e+03 6.371449532308349761e-01
1.322666600000000017e+03 6.408268955884611762e-01
1.328000000000000000e+03 6.372212685784022224e-01
1.333333399999999983e+03 6.367217843914280140e-01
1.338666600000000017e+03 6.361796622925942613e-01
1.344000000000000000e+03 6.153881049261233915e-01
1.349333399999999983e+03 5.731104539546013621e-01
1.354666600000000017e+03 5.084418378059094579e-01
1.360000000000000000e+03 4.365091364490099601e-01
1.365333399999999983e+03 3.743311787449555283e-01
1.370666600000000017e+03 3.322376469108014874e-01
1.376000000000000000e+03 3.081237255039926959e-01
1.381333399999999983e+03 3.047712292516279176e-01
1.386666600000000017e+03 3.110428852255275878e-01
1.392000000000000000e+03 3.218158207130254467e-01
1.397333399999999983e+03 3.289746569981536473e-01
1.402666600000000017e+03 3.272241193203256349e-01
1.408000000000000000e+03 3.199915574231966819e-01
1.413333399999999983e+03 3.183392024947658827e-01
1.418666600000000017e+03 3.272634200552008710e-01
1.424000000000000000e+03 3.606725896066967918e-01
1.429333399999999983e+03 4.315488195576871466e-01
1.434666600000000017e+03 5.412558028451157632e-01
1.440000000000000000e+03 6.769708512119185784e-01
1.445333399999999983e+03 8.142053887018894098e-01
1.450666600000000017e+03 9.104605050474759986e-01
1.456000000000000000e+03 9.408080185962715003e-01
1.461333399999999983e+03 8.985362358671981076e-01
1.466666600000000017e+03 7.928613168540733502e-01
1.472000000000000000e+03 6.503335402282752753e-01
1.477333399999999983e+03 5.029326494502142086e-01
1.482666600000000017e+03 3.696938832456070911e-01
1.488000000000000000e+03 2.632365931259803560e-01
1.493333399999999983e+03 1.782496959129587777e-01
1.498666600000000017e+03 1.076097134261746330e-01
1.504000000000000000e+03 5.451903223399217485e-02
1.509333399999999983e+03 2.111258428141116195e-02
1.514666600000000017e+03 6.493246670486636958e-03
1.520000000000000000e+03 5.393140869105007840e-03
1.525333399999999983e+03 9.471872598666416024e-03
1.530666600000000017e+03 1.770954068009827909e-02
1.536000000000000000e+03 3.232438062568232517e-02
1.541333399999999983e+03 5.460300306864163816e-02
1.546666600000000017e+03 8.194445867406745243e-02
1.552000000000000000e+03 1.071227044535256051e-01
1.557333399999999983e+03 1.294298700904177868e-01
1.562666600000000017e+03 1.512375904442646302e-01
1.568000000000000000e+03 1.745141453106484053e-01
1.573333399999999983e+03 2.022196366034572090e-01
1.578666600000000017e+03 2.338427513370724409e-01
1.584000000000000000e+03 2.669453517062266301e-01
1.589333399999999983e+03 2.980376122404380657e-01
1.594666600000000017e+03 3.283915402298539510e-01
1.600000000000000000e+03 3.572036306893897062e-01
1.605333399999999983e+03 3.793735954153902856e-01
1.610666600000000017e+03 3.916418825307956264e-01
1.616000000000000000e+03 4.012968458000280569e-01
1.621333399999999983e+03 4.047286985243212509e-01
1.626666600000000017e+03 4.185139637981603045e-01
1.632000000000000000e+03 4.497281206297358280e-01
1.637333399999999983e+03 5.018621735090665892e-01
1.642666600000000017e+03 5.753281713014654075e-01
1.648000000000000000e+03 6.746584736094218826e-01
1.653333399999999983e+03 7.827864514865353618e-01
1.658666600000000017e+03 8.912073338474935102e-01
1.664000000000000000e+03 9.717781179182899409e-01
1.669333399999999983e+03 1.000000000000000000e+00
1.674666600000000017e+03 9.629611731019097620e-01
1.680000000000000000e+03 8.708700180618261788e-01
1.685333399999999983e+03 7.423971786913250437e-01
1.690666600000000017e+03 6.029940971507390390e-01
1.696000000000000000e+03 4.649107916545371366e-01
1.701333399999999983e+03 3.391591465336527000e-01
1.706666600000000017e+03 2.341326928835894550e-01
1.712000000000000000e+03 1.568212483669607915e-01
1.717333399999999983e+03 1.095094828400304532e-01
1.722666600000000017e+03 8.276532776875365760e-02
1.728000000000000000e+03 6.273878387939940682e-02
1.733333399999999983e+03 4.560836094102799915e-02
1.738666600000000017e+03 3.352592425063522646e-02
1.744000000000000000e+03 2.686072963537711189e-02
1.749333399999999983e+03 2.533649742096732993e-02
1.754666600000000017e+03 2.435318903846710181e-02
1.760000000000000000e+03 1.735760511497130149e-02
1.765333399999999983e+03 6.906510042121761193e-03
1.770666600000000017e+03 5.159661912267755543e-03
1.776000000000000000e+03 1.010751415872878679e-02
1.781333399999999983e+03 1.924120709807552315e-02
1.786666600000000017e+03 2.886675958858428426e-02
1.792000000000000000e+03 3.163962333668440124e-02
1.797333399999999983e+03 2.931325043339946118e-02
1.802666600000000017e+03 2.117558555190425171e-02
