6.080000000000000000e+02 6.045348995632489342e-02
6.133333099999999831e+02 8.069697485698072714e-02
6.186666900000000169e+02 8.630358202437532489e-02
6.240000000000000000e+02 8.071823708027077438e-02
6.293333099999999831e+02 6.800674833697528676e-02
6.346666900000000169e+02 4.893209692282863427e-02
6.400000000000000000e+02 3.055466761662845032e-02
6.453333099999999831e+02 1.446671175573003773e-02
6.506666900000000169e+02 3.163453378143357871e-03
6.560000000000000000e+02 0.000000000000000000e+00
6.613333099999999831e+02 4.594053319490322938e-03
6.666666900000000169e+02 1.433329905979735530e-02
6.720000000000000000e+02 2.913248785907577437e-02
6.773333099999999831e+02 4.457538230889918074e-02
6.826666900000000169e+02 6.065191553704291083e-02
6.880000000000000000e+02 8.191253523940861259e-02
6.933333099999999831e+02 1.023793036672543816e-01
6.986666900000000169e+02 1.155790392476581940e-01
7.040000000000000000e+02 1.183057057541078427e-01
7.093333099999999831e+02 1.092966022918648999e-01
7.146666900000000169e+02 9.357306088558205170e-02
7.200000000000000000e+02 8.715685311234831756e-02
7.253333099999999831e+02 9.310641142045057717e-02
7.306666900000000169e+02 1.102687415039046992e-01
7.360000000000000000e+02 1.364133193692623480e-01
7.413333099999999831e+02 1.564019893118241411e-01
7.466666900000000169e+02 1.561413909740779205e-01
7.520000000000000000e+02 1.382037047092998516e-01
7.573333099999999831e+02 1.154023632426442042e-01
7.626666900000000169e+02 9.998255049327557653e-02
7.680000000000000000e+02 1.045078772107203846e-01
7.733333099999999831e+02 1.214761813643548266e-01
7.786666900000000169e+02 1.342876826375216381e-01
7.840000000000000000e+02 1.355805430427098057e-01
7.893333099999999831e+02 1.318684813881707552e-01
7.946666900000000169e+02 1.342764944924504378e-01
8.000000000000000000e+02 1.541172422281207044e-01
8.053333099999999831e+02 1.912210314900161523e-01
8.106666900000000169e+02 2.304038525922762759e-01
8.160000000000000000e+02 2.565612576252699895e-01
8.213333099999999831e+02 2.691555553499870301e-01
8.266666900000000169e+02 2.746228345779224700e-01
8.320000000000000000e+02 2.835136834678536055e-01
8.373333099999999831e+02 3.052620583371628005e-01
8.426666900000000169e+02 3.375914100953986696e-01
8.480000000000000000e+02 3.689067786264415005e-01
8.533333099999999831e+02 3.982443012485517575e-01
8.586666900000000169e+02 4.184396640613416984e-01
8.640000000000000000e+02 4.252245086835367283e-01
8.693333099999999831e+02 4.250229074543238617e-01
8.746666900000000169e+02 4.173594944875002044e-01
8.800000000000000000e+02 3.961695641350799213e-01
8.853333099999999831e+02 3.677158796109736283e-01
8.906666900000000169e+02 3.379707243837055675e-01
8.960000000000000000e+02 3.171919189915173853e-01
9.013333099999999831e+02 3.281312517773307125e-01
9.066666900000000169e+02 3.674696255362691066e-01
9.120000000000000000e+02 4.173288305166959478e-01
9.173333099999999831e+02 4.591177768478881260e-01
9.226666900000000169e+02 4.794243510306246403e-01
9.280000000000000000e+02 4.751301336570663558e-01
9.333333099999999831e+02 4.597741982045910336e-01
9.386666900000000169e+02 4.399012647594676140e-01
9.440000000000000000e+02 4.197982631211667481e-01
9.493333099999999831e+02 4.027748712100222006e-01
9.546666900000000169e+02 3.970808426858234430e-01
9.600000000000000000e+02 4.004372956357827307e-01
9.653333099999999831e+02 4.068920519114775369e-01
9.706666900000000169e+02 4.069028837514753194e-01
9.760000000000000000e+02 3.949394828776291999e-01
9.813333099999999831e+02 3.847645261622054669e-01
9.866666900000000169e+02 3.950157839788904224e-01
9.920000000000000000e+02 4.271437970265154482e-01
9.973333099999999831e+02 4.632499406675020248e-01
1.002666699999999992e+03 4.737094267756620791e-01
1.008000000000000000e+03 4.475940627049023735e-01
1.013333300000000008e+03 4.094696831277789273e-01
1.018666699999999992e+03 3.833064281452887023e-01
1.024000000000000000e+03 3.874319933111670666e-01
1.029333399999999983e+03 4.113937006343841851e-01
1.034666600000000017e+03 4.293506650230089483e-01
1.040000000000000000e+03 4.249010462305622404e-01
1.045333399999999983e+03 3.992139661836495712e-01
1.050666600000000017e+03 3.533737270346877235e-01
1.056000000000000000e+03 3.063480811499556533e-01
1.061333399999999983e+03 2.707625542196510637e-01
1.066666600000000017e+03 2.554329204685594767e-01
1.072000000000000000e+03 2.622165103678588682e-01
1.077333399999999983e+03 2.885381849631364903e-01
1.082666600000000017e+03 3.150182452173275194e-01
1.088000000000000000e+03 3.283661933254704013e-01
1.093333399999999983e+03 3.218779340711998560e-01
1.098666600000000017e+03 2.924805611888837142e-01
1.104000000000000000e+03 2.499466491790821310e-01
1.109333399999999983e+03 2.160669825973241531e-01
1.114666600000000017e+03 1.953208330460995679e-01
1.120000000000000000e+03 1.801470377145091839e-01
1.125333399999999983e+03 1.609188017207713040e-01
1.130666600000000017e+03 1.212291991910133121e-01
1.136000000000000000e+03 6.682748703018442926e-02
1.141333399999999983e+03 2.488653371804674247e-02
1.146666600000000017e+03 1.154058661033374733e-02
1.152000000000000000e+03 2.924793803171599205e-02
1.157333399999999983e+03 6.942396849170209827e-02
1.162666600000000017e+03 1.087487102246454118e-01
1.168000000000000000e+03 1.329897225255621818e-01
1.173333399999999983e+03 1.442135630728957341e-01
1.178666600000000017e+03 1.458862069957178320e-01
1.184000000000000000e+03 1.464902652149371320e-01
1.189333399999999983e+03 1.584715379767287768e-01
1.194666600000000017e+03 1.832779836057384926e-01
1.200000000000000000e+03 2.154169804578737191e-01
1.205333399999999983e+03 2.529193732578600695e-01
1.210666600000000017e+03 2.974803686046934015e-01
1.216000000000000000e+03 3.572423096743239102e-01
1.221333399999999983e+03 4.405779376596068442e-01
1.226666600000000017e+03 5.401835004564711218e-01
1.232000000000000000e+03 6.328045229094527713e-01
1.237333399999999983e+03 6.968846086506704784e-01
1.242666600000000017e+03 7.227775651748737928e-01
1.248000000000000000e+03 7.163516523322828178e-01
1.253333399999999983e+03 6.965633128905233118e-01
1.258666600000000017e+03 6.791676597410744032e-01
1.264000000000000000e+03 6.670826896175060527e-01
1.269333399999999983e+03 6.557342519625822819e-01
1.274666600000000017e+03 6.364964953095674227e-01
1.280000000000000000e+03 6.073379485895702423e-01
1.285333399999999983e+03 5.831660675845580233e-01
1.290666600000000017e+03 5.772213207145316938e-01
1.296000000000000000e+03 5.957786183290834092e-01
1.301333399999999983e+03 6.313510662608111668e-01
1.306666600000000017e+03 6.687961007520420997e-01
1.312000000000000000e+03 6.944957552493675745e-01
1.317333399999999983e+03 7.046944769987689705e-01
1.322666600000000017e+03 7.030588429478822343e-01
1.328000000000000000e+03 6.972304852371884465e-01
1.333333399999999983e+03 6.819570217743812224e-01
1.338666600000000017e+03 6.535610224486950726e-01
1.344000000000000000e+03 6.051271738147340207e-01
1.349333399999999983e+03 5.364082384867620013e-01
1.354666600000000017e+03 4.593754478460050916e-01
1.360000000000000000e+03 3.949567587131186386e-01
1.365333399999999983e+03 3.459938734527493454e-01
1.370666600000000017e+03 3.157743065903907409e-01
1.376000000000000000e+03 3.003567715652353254e-01
1.381333399999999983e+03 2.960737127204653429e-01
1.386666600000000017e+03 2.975482531172807255e-01
1.392000000000000000e+03 3.094809499975270106e-01
1.397333399999999983e+03 3.255086965008323618e-01
1.402666600000000017e+03 3.436453416175240250e-01
1.408000000000000000e+03 3.643935651964952394e-01
1.413333399999999983e+03 3.838370447247004269e-01
1.418666600000000017e+03 4.043595188388461326e-01
1.424000000000000000e+03 4.463322095036888482e-01
1.429333399999999983e+03 5.259157912486353004e-01
1.434666600000000017e+03 6.504504417583262255e-01
1.440000000000000000e+03 8.001310989059771117e-01
1.445333399999999983e+03 9.306380208560712797e-01
1.450666600000000017e+03 9.999999999999998890e-01
1.456000000000000000e+03 9.914655886372973903e-01
1.461333399999999983e+03 9.054771145721908221e-01
1.466666600000000017e+03 7.698442535299148126e-01
1.472000000000000000e+03 6.067887139457857071e-01
1.477333399999999983e+03 4.435401142899205174e-01
1.482666600000000017e+03 2.976290840414300143e-01
1.488000000000000000e+03 1.820120658744977249e-01
1.493333399999999983e+03 9.494996549711788580e-02
1.498666600000000017e+03 4.079017719039876311e-02
1.504000000000000000e+03 1.178145677879471019e-02
1.509333399999999983e+03 5.113442163599803136e-03
1.514666600000000017e+03 1.354196051783208496e-02
1.520000000000000000e+03 2.939320740814480026e-02
1.525333399999999983e+03 4.280939519921690695e-02
1.530666600000000017e+03 5.247400917781194774e-02
1.536000000000000000e+03 5.816735978426623016e-02
1.541333399999999983e+03 6.300926709473134157e-02
1.546666600000000017e+03 7.445627388427808468e-02
1.552000000000000000e+03 9.870980469973374138e-02
1.557333399999999983e+03 1.369405068866181852e-01
1.562666600000000017e+03 1.852721214491813984e-01
1.568000000000000000e+03 2.343948000541936916e-01
1.573333399999999983e+03 2.732696622253908414e-01
1.578666600000000017e+03 2.956540787465352649e-01
1.584000000000000000e+03 3.063601289980711906e-01
1.589333399999999983e+03 3.138244703395690616e-01
1.594666600000000017e+03 3.269676096401738508e-01
1.600000000000000000e+03 3.498260752848455502e-01
1.605333399999999983e+03 3.763434243113870648e-01
1.610666600000000017e+03 3.976338579422136199e-01
1.616000000000000000e+03 4.127808346542351514e-01
1.621333399999999983e+03 4.272039635003661573e-01
1.626666600000000017e+03 4.530370137545867149e-01
1.632000000000000000e+03 4.999652490561884433e-01
1.637333399999999983e+03 5.628969431212759167e-01
1.642666600000000017e+03 6.383543066855139614e-01
1.648000000000000000e+03 7.177717352390415861e-01
1.653333399999999983e+03 7.923595473489938312e-01
1.658666600000000017e+03 8.591304098641107112e-01
1.664000000000000000e+03 9.075474656748609981e-01
1.669333399999999983e+03 9.186049288645915523e-01
1.674666600000000017e+03 8.869170951201037489e-01
1.680000000000000000e+03 8.072796954645244938e-01
1.685333399999999983e+03 6.854437143061715698e-01
1.690666600000000017e+03 5.426326020381970761e-01
1.696000000000000000e+03 3.985826962845047117e-01
1.701333399999999983e+03 2.705311701988070694e-01
1.706666600000000017e+03 1.726673016266165039e-01
1.712000000000000000e+03 1.069418119887276947e-01
1.717333399999999983e+03 6.841600130945761638e-02
1.722666600000000017e+03 4.797948990996462465e-02
1.728000000000000000e+03 3.688568463047917079e-02
1.733333399999999983e+03 3.102829820277301642e-02
1.738666600000000017e+03 2.625790579048599416e-02
1.744000000000000000e+03 2.051624105321286223e-02
1.749333399999999983e+03 1.421319452985856518e-02
1.754666600000000017e+03 8.560462040711706161e-03
1.760000000000000000e+03 7.936584643644354828e-03
1.765333399999999983e+03 1.416366513543220601e-02
1.770666600000000017e+03 2.376009827735351201e-02
1.776000000000000000e+03 3.212731683315897535e-02
1.781333399999999983e+03 3.743105600584867299e-02
1.786666600000000017e+03 3.951823109891453717e-02
1.792000000000000000e+03 3.822191886812382339e-02
1.797333399999999983e+03 3.106066785882845294e-02
1.802666600000000017e+03 1.619337951377298676e-02
